# n,energy,berry,bcd_x,bcd_y,qmd_x,qmd_y
0.00000007407407407407407,-3.0800415918814994,0.00000000022119214351230937,0,0,0,0
0.006666666666666667,-3.0323955424808933,0.000024458143030858386,0.000049270110974956215,-0.00008533833550317845,0.00011560784411433585,-0.00006674621991984361
0.013333333333333334,-2.9854424432628064,0.00007108963516135898,0.00013999389895562206,-0.00024247654574079477,0.000318519591625975,-0.00018389737196742684
0.02,-2.9450247541846406,0.0001492197144977616,0.00024305336247899446,-0.0004209807727640638,0.0005221773304116788,-0.0003014792222779034
0.02666666666666667,-2.9201164146898932,0.00022533579430319978,0.0003315528249793811,-0.0005742663382572639,0.0005979457131763295,-0.0003452241184631349
0.03333333333333333,-2.8969239624862824,0.00031765985329318365,0.00043320255024539617,-0.0007503288269934226,0.0006165855655350877,-0.00035598584224011913
0.04,-2.8739309284753736,0.000429576341966383,0.0005450080389890025,-0.0009439816140624042,0.0005947633125063122,-0.0003433867585796282
0.04666666666666667,-2.8511035079541864,0.0005616630184556853,0.0006632773175506119,-0.0011488300135056345,0.0005312029155634319,-0.0003066901462948585
0.05333333333333334,-2.8284433084166247,0.0007153599844218967,0.0007846820208413632,-0.0013591091278830425,0.000421357540257888,-0.00024327088929296259
0.06,-2.8059622501419987,0.0008917836944286305,0.0009057420876590452,-0.0015687913143789377,0.0002590006839992757,-0.00014953411462727124
0.06666666666666667,-2.783645578659998,0.0010921844671396416,0.0010229040203066486,-0.001771721734437539,0.00003595183815004722,-0.00002075680343378271
0.07333333333333333,-2.761524709910606,0.0013183815621973193,0.0011320715389662275,-0.001960805423292157,-0.00025752271594618113,0.00014868080937399073
0.08,-2.7395436241698623,0.0015712024900830968,0.0011707037613866106,-0.0021205775947248195,-0.000507508460148929,0.0004025529950247525
0.08666666666666667,-2.717761955597899,0.0018550936842226897,0.001268667068303092,-0.0022634109458795734,-0.0010013649872152221,0.0006937394170392677
0.09333333333333334,-2.6961605816035368,0.0021697182901748192,0.0013304416110134216,-0.0023636085737151623,-0.001604906633704616,0.0010546123875116195
0.1,-2.6747191630015834,0.002516105707362127,0.001360177195556394,-0.0024122606531676795,-0.002352549162525358,0.0014990084745191475
0.10666666666666667,-2.6534497536377173,0.0028965386614775985,0.0013528541902208847,-0.0023975558796144347,-0.0032795643877777366,0.0020439014558078705
0.11333333333333333,-2.632362002016696,0.003313595906870617,0.00140509110451283,-0.002245759756109783,-0.004481853591781766,0.0026444517658993365
0.12,-2.611450797685063,0.003766991928774311,0.0014336614159005615,-0.0019847760009507813,-0.0059431077685361145,0.0033712512793168245
0.12666666666666668,-2.5907191797310563,0.0042593757074167226,0.0010850086111151595,-0.0017939271786280187,-0.007566933752339364,0.00447549487268511
0.13333333333333333,-2.570160306014655,0.004792965384772802,0.0008354677310075128,-0.001366755380869212,-0.009780199075065218,0.005701151995325442
0.14,-2.5497906390671052,0.005367499678145057,0.000500248253331373,-0.0007782438287563852,-0.012533616803833844,0.0072120913322268896
0.14666666666666667,-2.529592731087883,0.00598488660255108,0.000059508783402478305,-0.000001149765546164369,-0.01598705712492235,0.009090389653549826
0.15333333333333332,-2.509590123519481,0.006646755469188571,-0.0005052035653520244,0.0009949660934558484,-0.02033947386792316,0.011439695419393096
0.16,-2.4897754669789727,0.007350769436326591,-0.0012136178093273594,0.0022440147805055685,-0.02586122979387804,0.014402890512396793
0.16666666666666666,-2.4701620968441134,0.008096826487325732,-0.0020839753502593073,0.0037777608692164686,-0.0329087408576962,0.018170949987200716
0.17333333333333334,-2.450748357919921,0.008882498579040471,-0.0031305006769488954,0.005621238268228143,-0.04196831333114505,0.023008308622406874
0.18,-2.431540797127656,0.009700980770713684,-0.004354696035094374,0.007777596374687211,-0.053696245867708,0.029277081948162042
0.18666666666666668,-2.412553469044215,0.01054246810244401,-0.005729634630057032,0.010200816069159057,-0.06897605089055345,0.0374715082542725
0.19333333333333333,-2.393799574859258,0.011393351475297237,-0.007171255219356334,0.01274596256288921,-0.08899549411643604,0.04826418109988134
0.2,-2.3753039287008906,0.012230155274287568,-0.008485126889312054,0.01507690619029126,-0.11530471258364036,0.06254240098925253
0.20666666666666667,-2.357088403944954,0.013016373846426775,-0.009283477611864894,0.016522625646055177,-0.14987585052808772,0.0814444572031017
0.21333333333333335,-2.339238902810245,0.013670816191174861,-0.008516207729257458,0.015265436714322629,-0.19651853786490092,0.10716961370667524
0.22,-2.3218069027458146,0.01405500933681422,-0.003981247740504551,0.007491080547676709,-0.25826385027282667,0.14150463441494515
0.22666666666666666,-2.305248166227794,0.013753708828320773,0.008065467499770983,-0.01328838168137899,-0.33607020370974516,0.18508745317183742
0.23333333333333334,-2.288918224827219,0.013005911396785043,0.02569643099051555,-0.043732126956430556,-0.3737512901880821,0.20547611386798
0.24,-2.2724233272039682,0.011818309634575211,0.04943568876674896,-0.0847458396318645,-0.30370311156283464,0.1636525073233699
0.24666666666666667,-2.2557181006601037,0.00961215572587836,0.08091234599194003,-0.13915121162326022,-0.03728859843580038,0.008496994155312146
0.25333333333333335,-2.2398150433289024,0.0032191190341395726,0.11547553377623668,-0.19890077857879687,0.5631283893952634,-0.3392763455532207
0.26,-2.2227150422996003,-0.0038391046169929115,0.14842314241064689,-0.2558404975679961,1.1370556380717698,-0.6715601191617042
0.26666666666666666,-2.2046488875745145,-0.010606713110633395,0.1817105056983398,-0.31336526693597744,1.665637442384174,-0.9773123818663652
0.2733333333333333,-2.186192862686517,-0.01651019260063074,0.2194731608625426,-0.37865315250128706,2.1531223551617966,-1.2587976563043874
0.28,-2.1676497472788103,-0.02148834564353036,0.2621333063374164,-0.45245297641320276,2.5771786921472972,-1.502993871224967
0.2866666666666667,-2.148311157861233,-0.02727458984175302,0.3096581463173958,-0.5347270252504952,2.8638662114777533,-1.667063742798818
0.29333333333333333,-2.129435239559246,-0.030030913476227623,0.339854771454124,-0.5870617607478384,3.1379583160080537,-1.823116318648025
0.3,-2.111890035136985,-0.02556359317780553,0.3370655698030466,-0.5823399179903741,3.6892609913020498,-2.138767884189855
0.30666666666666664,-2.092573882765437,-0.017315216113881163,0.3183186276163916,-0.550088738223139,4.647729331645776,-2.6887429740826985
0.31333333333333335,-2.071518563954705,-0.00788331228728705,0.30530924345152755,-0.5278947072291226,5.669089281288668,-3.2746743200854924
0.32,-2.0502208029007902,0.003987723948837955,0.29605514506896224,-0.50919166879075,6.587678874316497,-3.799739326341676
0.32666666666666666,-2.0299869290626398,0.018732555678137683,0.28811868128414153,-0.490027247266613,7.287406622400711,-4.197882948468647
0.3333333333333333,-2.0091222129640895,0.03296768768611898,0.27093190821935165,-0.46223860722394977,7.951833386414667,-4.592431844394993
0.34,-1.988382193595805,0.04373099091444559,0.24943067061984484,-0.4243824799699558,8.592067399285073,-4.986531359737192
0.3466666666666667,-1.9693529389633508,0.045246450079051564,0.22677668298087147,-0.381799343750383,9.064559927188125,-5.290710326819811
0.35333333333333333,-1.9518306917155652,0.0323687063747483,0.2475670343978735,-0.4131200910779261,9.516429153003134,-5.640157270480246
0.36,-1.9344117933234533,-0.013189385069122487,0.5507580964045706,-0.9679878538778235,10.89733365883691,-6.537796443620706
0.36666666666666664,-1.9171317299946635,-0.1751989844367912,2.190307039722231,-4.151443039505395,16.082205704702716,-8.903872110801
0.37333333333333335,-1.9017905497903138,-0.5544074831171604,-12.379571514850445,27.642916441184212,28.396427362125344,-12.215748867035991
0.38,-1.8872380799177386,-0.3317273982701146,-10.543429871194203,23.188365650781805,19.487079938879653,-7.905274511481795
0.38666666666666666,-1.8730712710384483,0.13422694062612722,-1.0792748025598815,2.0173034726628245,1.8733272707663615,-0.6266612119703335
0.3933333333333333,-1.8588572798672411,0.1814635957900082,-0.5576590999357898,1.0125289350565232,-1.4994701486091917,1.143934839355682
0.4,-1.844125036686523,0.20949397900216205,-0.3452510897679254,0.6110408113184681,-3.1496849202837898,1.9823333661897196
0.4066666666666667,-1.8294031595934614,0.23048160187960554,-0.245409210998787,0.42679803570516284,-4.015151955640609,2.4077192901894886
0.41333333333333333,-1.8149143910612258,0.24857084850221414,-0.19183937788151578,0.3298231216332678,-4.4014574946557445,2.5885948505058494
0.42,-1.8012576342641702,0.26552078138047097,-0.16416055411824648,0.2817207872264682,-4.2605666484906095,2.4925689411594303
0.4266666666666667,-1.7876850262230235,0.2834944592185493,-0.14451551390764633,0.24790701588443334,-3.885674894129748,2.269339928366805
0.43333333333333335,-1.774193787556678,0.30258200138623154,-0.13132268065469743,0.225522527880144,-3.374922713068816,1.9728637571119718
0.44,-1.7608953525522093,0.32492411058383935,-0.12688370867959933,0.2183673577015469,-2.9911099989432404,1.7498415313719173
0.44666666666666666,-1.7478473753204824,0.35009562183021864,-0.12494723738952164,0.2155156539661358,-2.6452476165335304,1.5484925231387623
0.4533333333333333,-1.7349862982498427,0.3773989835368635,-0.12458176801091203,0.21535994447268858,-2.3226173742673977,1.3603894544531
0.46,-1.7226047388832073,0.41047564761553834,-0.12384446923394182,0.21446719422608987,-1.9840371468762992,1.1627977168730774
0.4666666666666667,-1.7104929271399458,0.44701514361563616,-0.12106129385444349,0.2099910517132376,-1.6016545353404554,0.9401148067854392
0.47333333333333333,-1.6987333200739623,0.48807599770630267,-0.11560685375894246,0.20083613761044117,-1.1620799293812563,0.6846707987313305
0.48,-1.6875674453482108,0.5376387690186535,-0.10279561156154275,0.17897243179668332,-0.5639713315162052,0.3397767996915316
0.4866666666666667,-1.6766240649402515,0.5903875353391704,-0.0872274929841976,0.15234625348464342,0.09354604364773844,-0.03863754744505077
0.49333333333333335,-1.6666900619849356,0.6605543275369492,-0.06373352212381747,0.11263653170847124,0.6323962360006814,-0.3391486166125247
0.5,-1.6568759356199108,0.7327897349453208,-0.03929825408629849,0.0713729704094351,1.1571531699619562,-0.630407666814273
0.5066666666666667,-1.648400818014041,0.8460159329168079,-0.010522437257488769,0.02610797944724403,1.257733898194984,-0.6460686469382444
0.5133333333333333,-1.6401632944503295,0.9665155468047668,0.019023567611880288,-0.019867026174356817,1.283048696599628,-0.6128274380115625
0.52,-1.6323731093168041,1.098405255713415,0.06834329715488055,-0.09003281096555525,1.2369362642926616,-0.5038014592284515
0.5266666666666666,-1.6252175652939895,1.24645414538374,0.14571610182609782,-0.1945181666345553,1.0894896876893772,-0.2872592751048177
0.5333333333333333,-1.618062021271175,1.3945030350540677,0.22308890649731639,-0.29900352230355703,0.9420431110860903,-0.07071709098118018
0.54,-1.6089406290412516,1.4951898177530611,0.6123444940468115,-0.967036918476726,-0.08647614273489879,0.3810119234693184
0.5466666666666666,-1.5985585040898203,1.5655024556923438,1.2016159466197731,-1.9964834961133713,-1.6800426622493578,0.9835703517009329
0.5533333333333333,-1.5879918286671444,1.9233329583656116,10.768409564612531,-18.594524147293594,-9.292419351265847,5.338546677754994
0.56,-1.577336933197221,2.4186046685320903,24.626698209719414,-42.63476798268021,-19.781947823995473,11.4872788365919
0.5666666666666667,-1.5663598364992941,2.2997575463433,12.590095723570807,-21.79918283670093,-20.28305632571143,11.8158622828857
0.5733333333333334,-1.5552988220915065,2.0209624118117384,-6.190863307372378,10.724367682812748,-18.182668444909332,10.628580771024218
0.58,-1.5445176009386008,1.7988609307521906,-3.8378102379534806,6.769179540980916,-15.18235334270528,8.096696946288995
0.5866666666666667,-1.5338397654911904,1.5907674913846113,-1.341112141650533,2.5410917421579295,-12.360441502462933,5.837497087668681
0.5933333333333334,-1.5238966004480408,1.4792241666298902,-1.1287836986693052,2.0678610330924125,-11.026580948382243,5.847813987385565
0.6,-1.5142327617302074,1.3619328004809226,-0.9351585665214912,1.6370037127173835,-9.798192700528835,5.846809345988118
0.6066666666666667,-1.507107595709415,1.1924000434335944,-0.9115195053367978,1.5912592700057604,-9.528395318789066,5.7429082544159495
0.6133333333333333,-1.4999824296886228,1.0228672863862691,-0.8878804441521049,1.5455148272941381,-9.258597937049302,5.639007162843783
0.62,-1.4919941165225215,0.8729444262118587,-0.8746771890531685,1.5185763098352307,-9.016679794534369,5.543865434731999
0.6266666666666667,-1.481818840835947,0.7727073116539334,-0.887915215611148,1.539286508952671,-8.845399493568683,5.47091737278151
0.6333333333333333,-1.4708285169967574,0.6884203868884442,-0.9104050610096068,1.5762990214531671,-8.698745487189676,5.407998448341665
0.64,-1.4580326013282117,0.6394682239692293,-0.9533906384104714,1.649426361954448,-8.606646584273395,5.367297264886336
0.6466666666666666,-1.4444194832558064,0.6006460883546217,-1.0204240136012874,1.7516939049822688,-8.551558769572257,5.337677146814883
0.6533333333333333,-1.4302631654716966,0.5672708086985122,-1.1104335848348375,1.9010848350835452,-8.470153459437217,5.290519232575439
0.66,-1.4154961522713085,0.5384480790886129,-1.2348115332021585,2.1373444464621922,-8.296983558096201,5.193234843222384
0.6666666666666666,-1.397961402391173,0.4496681564650679,-1.6589414255263208,2.8734245867960104,-7.672800454582183,4.812519884380294
0.6733333333333333,-1.37932003303935,0.3268002064216603,-2.6370582233393947,4.567973045173116,-7.054264292953209,4.423577547488358
0.68,-1.3601333134963784,0.15311260272453833,-5.5219702059341556,9.565348845613237,-6.746388354937956,4.20352683866234
0.6866666666666666,-1.3406128226769187,-0.2267090769604128,-21.860262028261776,37.864833220825886,-7.773173072956105,4.745894177576976
0.6933333333333334,-1.3208509553832566,-1.7216868118328446,-3.777323982633991,6.5454529111124415,1.5750993139027454,-0.7057391625963749
0.7,-1.3012381120579655,-0.7930205785360707,10.980546640594838,-18.981611843308176,8.027558083677267,-4.500007354779531
0.7066666666666667,-1.281540397073483,0.0590625354286686,6.749981958798882,-11.67002108279952,10.718306018428397,-6.092875159843889
0.7133333333333334,-1.2596228714764672,0.05260838100690714,2.56310909856059,-4.437849979815092,12.198932664415832,-6.978183683839171
0.72,-1.2361483251802905,0.03337550394443481,2.6303927841370283,-4.553831850632016,12.602134751269771,-7.2454324479254035
0.7266666666666667,-1.2138333310169465,-0.0445069238700127,6.280274239827726,-10.87482261029425,13.364907166551491,-7.711270419252958
0.7333333333333333,-1.19425519161645,-0.46475719838525154,45.86599973758531,-79.43849875682778,18.01947143932714,-10.41346187599116
0.74,-1.1735235893138105,-0.02474757691905159,-40.70938659195051,70.51533790610654,2.535044963557423,-1.482596055309352
0.7466666666666667,-1.1520935191161548,0.1806024229656914,-2.699619695648332,4.681299794249715,-3.8489474509451775,2.1996226994076973
0.7533333333333333,-1.1304681041425526,0.22441012666263457,-0.48302499599819465,0.8427020992109439,-4.338343392466863,2.482376833732144
0.76,-1.1090638482127875,0.25109531007254576,-0.01010677664126676,0.02404273103071823,-4.025231732220455,2.3039054025128207
0.7666666666666667,-1.0884342105986768,0.26986196190301553,0.15907138330543005,-0.2687229613380838,-3.405955431485163,1.9494550135449302
0.7733333333333333,-1.0689267288475914,0.28154797996618075,0.2558696442612906,-0.43628722602830866,-2.651968226129873,1.5172251737871956
0.78,-1.049001854210593,0.2880690100643005,0.3124313614765999,-0.5342864962545277,-1.950598120537661,1.1152512936891907
0.7866666666666666,-1.0275395711765656,0.29250318748382753,0.30104957638836166,-0.5147190597838371,-1.4324515427491222,0.8188788466396111
0.7933333333333333,-1.0052052731531,0.29543114460284925,0.2654861952602489,-0.4533570166774437,-1.0632380209128605,0.6081035939923114
0.8,-0.9822262454114986,0.2974913636638954,0.2250643128183415,-0.38363850447838854,-0.8016882550162245,0.45905969804298064
0.8066666666666666,-0.9586601051774856,0.298939869780008,0.18682513327595723,-0.3177318015529546,-0.6145011072516087,0.3525553640519627
0.8133333333333334,-0.9345394512136117,0.3001645263239854,0.15285204551551013,-0.25922357953967323,-0.4786147547947426,0.27533423723848044
0.82,-0.9098139863397181,0.30123671146105396,0.12373859437853003,-0.20912374189921182,-0.38102177822363315,0.21992816830845385
0.8266666666666667,-0.8845754255828794,0.30244569587261383,0.09874973898427357,-0.16614680876952606,-0.30863854915147276,0.17886184738204167
0.8333333333333334,-0.858839464268078,0.30391787531362524,0.07697914718257168,-0.12871815927469576,-0.253188201950365,0.14742003143964091
0.84,-0.8326293710455133,0.3055567568367474,0.05784400207025037,-0.09582600385673702,-0.2102436712396156,0.12308670150732219
0.8466666666666667,-0.8058341444113332,0.30744249534306645,0.041127397984873915,-0.06709054683654547,-0.17795208818586683,0.10481666538905057
0.8533333333333334,-0.7785810004693805,0.3097441692003906,0.025977947017695707,-0.04104301471678182,-0.15220399923089784,0.09028312794137003
0.86,-0.7508140770522966,0.3124021203005219,0.012082919838299636,-0.017141467080071367,-0.13166883361896037,0.07874525489878309
0.8666666666666667,-0.7225049906812491,0.3156504538885079,-0.0007354248201189378,0.004924783465859113,-0.11562782247169598,0.06982372983792118
0.8733333333333333,-0.693745361240326,0.31923466057870853,-0.012855613937984879,0.025807978950216446,-0.10257633510053486,0.06268895234013078
0.88,-0.6644216274186764,0.3237635951763198,-0.024282855112655783,0.04547501582172119,-0.09250233343867076,0.05743927392384906
0.8866666666666667,-0.6346060167417487,0.3287674297468678,-0.03497738250992917,0.06326487215968789,-0.08530155970326603,0.05410995031466895
0.8933333333333333,-0.6042378330598971,0.33468186908597675,-0.04129907171344227,0.0753868275176826,-0.08298000044650211,0.05640893336702895
0.9,-0.573405036502319,0.3415531857145955,-0.06432506606078146,0.11067445324990578,-0.06868946759028327,0.0420082473226962
0.9066666666666666,-0.5419951398839665,0.3496513613876137,-0.07847831999641132,0.13100525782522948,-0.06521049045770233,0.03888821367744054
0.9133333333333333,-0.510133123197519,0.35900054787488284,-0.09203423397338405,0.15290179594205547,-0.06204933293147589,0.0372076051229807
0.92,-0.4777258506267943,0.37012030770725657,-0.10801894611041384,0.17709522457079105,-0.061449762443334985,0.03702947909737213
0.9266666666666666,-0.44485260300691387,0.3834215008563336,-0.14792859342334821,0.17310152033425405,-0.04762597644976649,0.060051283911871416
0.9333333333333333,-0.41156633015599586,0.39928717728608093,-0.1247345388177596,0.2160465586910201,-0.05067864574776026,0.029259329764634023
0.94,-0.37792571803963576,0.41905498465451496,-0.13671482599085494,0.23679702476410106,-0.04899203866350648,0.02828556671052409
0.9466666666666667,-0.34404513616550586,0.4435759490948874,-0.14648318613818453,0.25371632084590123,-0.047605537131319216,0.027485069677685416
0.9533333333333334,-0.3101572999046638,0.47467216977757454,-0.15141905420347776,0.2622654951144518,-0.046405235089044504,0.026792074970469634
0.96,-0.27670041856191446,0.5167608039138096,-0.14497211557257225,0.2510990698524426,-0.045347236539099174,0.02618123922285506
0.9666666666666667,-0.24460665542326487,0.573205707640212,-0.11892543099052275,0.20598488878761093,-0.045292346615956616,0.026149548510952976
0.9733333333333334,-0.21620373478510468,0.6477611418064775,-0.07026188123585311,0.12169714813587022,-0.05145103532081013,0.02970526909255525
0.98,-0.19567269732582576,0.6860122192785825,-0.04288453245072389,0.07427818906349008,-0.06982149134180592,0.040311456821412975
