# n,energy,berry,bcd_x,bcd_y,qmd_x,qmd_y
0.0000015,-3.020343308245252,-0.0000000000000023221940978977575,0,0,0,0
0.006688963210702341,-2.9963560814932535,-0.00000014593155953863288,0.0000000000000000000018502801242867675,-0.00000000000000000000028672619621675705,-0.0000000000000000000003583077253995331,-0.000000000000000000003032862440730825
0.013377926421404682,-2.9725496433261407,-0.0000009726463628759757,0.000000000000000000008525581996753422,-0.0000000000000000000012721428552903043,-0.0000000000000000000042860759525768594,-0.000000000000000000013243626153751348
0.020066889632107024,-2.9488896981419295,-0.0000031784228923012697,0.00000000000000000007236414709923108,-0.00000000000000000005159825184080388,0.000000000000000000005770443773745547,0.000000000000000000024596066895553476
0.026755852842809364,-2.9254272423778054,-0.000007560859219389469,0.00000000000000000008141432361073708,-0.0000000000000000001297808048713853,-0.0000000000000000000058548712678247215,-0.00000000000000000005815062757646959
0.033444816053511704,-2.9021255437333515,-0.000014972809240301515,-0.00000000000000000006395050090378852,-0.0000000000000000000283670209585698,0.00000000000000000006720559078774845,-0.00000000000000000032444392254097607
0.04013377926421405,-2.878965130756963,-0.00002714177926677222,-0.00000000000000000020605937442114618,0.00000000000000000005060550562819849,0.0000000000000000000007570708841536993,-0.000000000000000000015157158078834084
0.046822742474916385,-2.8559746811886035,-0.00004489365658808904,-0.00000000000000000008336768769176803,0.0000000000000000003749407837370738,-0.00000000000000000038845384562790996,-0.00000000000000000011789682484631325
0.05351170568561873,-2.8332542676177215,-0.00006900548525109974,0.00000000000000000009622321468727567,0.00000000000000000015705465141204564,-0.00000000000000000043609011007026805,0.00000000000000000042739640404718215
0.06020066889632107,-2.8106756850610957,-0.00010123561073182994,0.00000000000000000009079412110120993,-0.0000000000000000002830549757323787,-0.00000000000000000006960163619942791,0.0000000000000000009019402676830028
0.06688963210702341,-2.788197380374963,-0.0001435342959714328,-0.0000000000000000006597655632698228,-0.00000000000000000018911862877631408,0.0000000000000000006549366014466003,0.0000000000000000000027836439451209495
0.07357859531772576,-2.7659693046625993,-0.0001968193942328834,0.000000000000000000942164844913625,0.0000000000000000004727248806161871,-0.0000000000000000013683018632199947,-0.0000000000000000005661711671037017
0.0802675585284281,-2.7438195144437785,-0.00026600216487283527,0.0000000000000000010654242686544768,-0.00000000000000000326460600745506,-0.0000000000000000019235157578969362,0.0000000000000000005925680725522548
0.08695652173913043,-2.7219595123224543,-0.0003528334882434792,-0.000000000000000002585751908227527,-0.0000000000000000012340340297060905,-0.000000000000000000048867672070935404,0.000000000000000001815117549266727
0.09364548494983277,-2.700172545907914,-0.00045717821516658955,-0.0000000000000000036472633395167836,0.0000000000000000036911412216876826,0.0000000000000000012945184113228078,0.0000000000000000006005520435484919
0.10033444816053512,-2.678605632822395,-0.000583648467553371,-0.000000000000000004167294801906052,-0.00000000000000000368306406242445,0.000000000000000005115548911683907,-0.000000000000000002167452273389282
0.10702341137123746,-2.65720609012829,-0.0007332678001810021,-0.0000000000000000003022380363209428,-0.00000000000000001069959654526432,0.0000000000000000026851691750154504,-0.0000000000000000022621599382100892
0.11371237458193979,-2.635964466494144,-0.0009111400464711087,-0.0000000000000000018513750344783113,-0.000000000000000012834459147866122,-0.000000000000000003467619544969971,0.0000000000000000006408026973137
0.12040133779264214,-2.614872253522726,-0.0011261602104650562,-0.0000000000000000004457604880904094,-0.000000000000000017549568740379903,0.000000000000000003698756682821417,-0.000000000000000009131611288271138
0.12709030100334448,-2.5939543271521828,-0.0013773408467370068,-0.0000000000000000014878490342926077,-0.000000000000000012481981521681958,0.000000000000000007694724936195897,-0.0000000000000000042288989377116735
0.13377926421404682,-2.573208344612443,-0.001669385703097536,0.000000000000000018532906441844254,0.000000000000000015220639569373687,-0.000000000000000008555187195674739,0.000000000000000005099111738576144
0.14046822742474915,-2.5526693919072527,-0.0020027679646891726,0.000000000000000006167425867860279,-0.000000000000000020329590652551314,-0.00000000000000003221898575382922,-0.000000000000000010440006220817529
0.14715719063545152,-2.5322627266635145,-0.002395227476257378,0.000000000000000010699936970117001,-0.000000000000000006406451462779803,-0.000000000000000030761867462425645,-0.000000000000000012056802440963642
0.15384615384615385,-2.5120173015756095,-0.0028465559248613357,0.00000000000000003311258833308923,-0.000000000000000007850780219277557,-0.00000000000000001625032747331524,-0.000000000000000007884830239309786
0.1605351170568562,-2.491909309511956,-0.0033611167711654877,0.00000000000000003005067262532575,-0.00000000000000006468476848545557,-0.00000000000000003764361595630193,-0.000000000000000028351251981990983
0.16722408026755853,-2.4720129195788285,-0.003952676716148639,0.000000000000000013413181726790895,-0.0000000000000001320441033185079,-0.000000000000000048577890140094384,-0.000000000000000027378222422555162
0.17391304347826086,-2.4522334504076873,-0.004633357505467764,0.0000000000000000069246579340954765,0.0000000000000000411540464963264,-0.000000000000000003564485436339208,0.000000000000000009984480575755289
0.1806020066889632,-2.432704646072185,-0.005394361681849606,0.000000000000000049515109733868745,-0.00000000000000009945215465341512,0.00000000000000004457448914959883,-0.000000000000000018072840715829775
0.18729096989966554,-2.4133403203218196,-0.006261136761601313,0.00000000000000005780758077670971,-0.00000000000000004474690100569095,-0.000000000000000009629672061266336,-0.0000000000000000449568602330433
0.1939799331103679,-2.394039698189255,-0.007266777263713071,0.000000000000000004059773984796402,0.00000000000000005625371723556068,-0.000000000000000018580530834341585,-0.000000000000000043178196381139816
0.20066889632107024,-2.374988654143443,-0.00836936048718893,0.000000000000000017545808241595644,0.0000000000000000867486872665573,0.000000000000000032464038896983906,-0.00000000000000004431290131472033
0.20735785953177258,-2.3560853183133106,-0.009641907804168855,-0.000000000000000031589651135082854,-0.00000000000000009726745916193218,0.00000000000000001991540536597752,-0.00000000000000007056201360223998
0.2140468227424749,-2.3373818105111916,-0.011062494919946944,-0.00000000000000006096021839495497,0.00000000000000006268850609144992,-0.000000000000000015489886373005847,-0.00000000000000005350993030344911
0.22073578595317725,-2.3187914743808142,-0.012665830821788225,-0.000000000000000046047049078889755,0.00000000000000009912133601188498,-0.00000000000000007027263811098759,-0.000000000000000027686500554544594
0.22742474916387959,-2.3004018596768985,-0.014462121941998163,0.000000000000000035677896367282136,0.00000000000000020857563888431424,-0.000000000000000005247717842543315,-0.00000000000000003149568500609388
0.23411371237458195,-2.2822007308100276,-0.01650186859149856,0.00000000000000009355219705384878,0.00000000000000021304543296170891,0.00000000000000002390393589745308,-0.000000000000000006935947051355449
0.2408026755852843,-2.264207486081,-0.01877010202603813,-0.0005269504670046155,0.0000000000000002025131910941098,-0.00000000000000005627353122784157,-0.00029359341629789696
0.24749163879598662,-2.246368454332031,-0.021311637492435392,-0.0010557792414187784,0.0000000000000002979853596705928,-0.0000000000000000792364735189887,-0.0005900343572467362
0.25418060200668896,-2.2286237719216717,-0.024200480649742555,-0.0006846664927129918,0.0000000000000002681682547042881,0.00000000000000003166068390800958,-0.0003873137019231944
0.2608695652173913,-2.211184055768638,-0.027325822109145085,-0.0005993145709877053,0.00000000000000017877126404627147,0.00000000000000011678295342099608,-0.00034137220496744086
0.26755852842809363,-2.193982799944074,-0.03088411650684133,-0.0005640550875828677,-0.000000000000000052896730718431087,0.00000000000000014772588920981288,-0.0003223907855083578
0.27424749163879597,-2.17685851876076,-0.03495587116535377,-0.000550613511673058,-0.00000000000000016626389840717197,0.00000000000000002512501082822769,-0.0003148267035175314
0.2809364548494983,-2.1600096794377857,-0.039484419705178984,-0.0005458761360325562,0.0000000000000002630985256469064,0.00000000000000003151425720868056,-0.00031158431599509256
0.28762541806020064,-2.1433350547887944,-0.04456540910658244,-0.0005469764398633155,0.000000000000000016330987018912813,-0.00000000000000000729976241096757,-0.00031113143217334206
0.29431438127090304,-2.126854176774533,-0.05027121824915241,-0.000551758552216207,-0.00000000000000014732254091480914,-0.000000000000000004109182478196149,-0.0003123052214123864
0.3010033444816054,-2.1105721932355417,-0.0566544377446882,-0.0005590619251955554,0.00000000000000012713164500623477,-0.0000000000000000006054737329515885,-0.00031449059586752514
0.3076923076923077,-2.094467299084942,-0.06376184320786867,-0.0005685680506418316,0.00000000000000033920472900313305,-0.0000000000000001728257130430569,-0.00031753583024069914
0.31438127090301005,-2.0787341798521823,-0.07181553585099971,-0.0005798951045659166,0.0000000000000006658262876551523,-0.00000000000000016064553879784707,-0.00032119718323930227
0.3210702341137124,-2.0632322188254757,-0.08094530632674907,-0.0005916986969658349,0.0000000000000005069440754421117,0.0000000000000002247942639370778,-0.0003247806721631379
0.3277591973244147,-2.047954350763007,-0.09122095570081619,-0.0006041763520285451,0.00000000000000016091973766665028,0.0000000000000003706629806516834,-0.0003284487295033508
0.33444816053511706,-2.0329105233869633,-0.1027522014901488,-0.000617333570890433,-0.00000000000000012894812113695998,0.00000000000000021056564103574369,-0.0003322259876578852
0.3411371237458194,-2.0181438444975153,-0.11582168440150101,-0.0006311229704125866,-0.00000000000000004034009671982676,-0.0000000000000000611981804089073,-0.0003360773839961539
0.34782608695652173,-2.003745239653898,-0.1312112101509661,-0.0006454086090407919,0.0000000000000008003234990131912,-0.000000000000000039548135169504447,-0.00033989642250626745
0.35451505016722407,-1.989648020366365,-0.14861267753763915,-0.0006595605994472454,0.0000000000000005126931321558959,0.00000000000000002391887429715172,-0.00034346732977427963
0.3612040133779264,-1.975837888781188,-0.16810397935065644,-0.0006736182806922488,-0.0000000000000005823983274149607,0.00000000000000006501343530001028,-0.0003468311101420338
0.36789297658862874,-1.962470489944945,-0.19170159074229334,-0.000688096597828448,-0.00000000000000020140247880775993,-0.00000000000000013333808023777832,-0.00035019497801015037
0.3745819397993311,-1.9497548867420447,-0.2195225152673886,-0.0007018854525763147,-0.0000000000000006063870476869852,0.00000000000000009492259107341728,-0.0003531699509289983
0.38127090301003347,-1.9374651298523138,-0.25034786060992953,-0.0007152635781114763,-0.0000000000000012924621297134983,0.0000000000000004915213327965783,-0.00035592106530248416
0.3879598662207358,-1.9263751897662291,-0.29275709985148696,-0.0007279899124851881,0.00000000000000018659658857642194,-0.00000000000000004201605426253699,-0.00035842598836213096
0.39464882943143814,-1.9165428270175282,-0.3500248656531753,-0.0006157250187113858,0.0000000000000011715333633824195,-0.0000000000000002798916446136167,-0.00043344240122305595
0.4013377926421405,-1.9098470567155084,-0.44435209554657845,-0.00019171266380363654,0.0000000000000009240535626037232,0.00000000000000021965902961484998,-0.0006893136883309152
0.4080267558528428,-1.9031512864134885,-0.5386793254399815,0.0002322996911041128,0.0000000000000006765737618250272,0.0000000000000007192097038433167,-0.0009451849754387744
0.41471571906354515,-1.8956504218810202,-0.6250214017996133,0.0011653555910973229,0.0000000000000004201986759244415,0.0000000000000008762260911739398,-0.0015111430845725245
0.4214046822742475,-1.8866381369630763,-0.6963727809518288,0.003054049678570915,0.00000000000000014712428358323188,0.00000000000000039019563459264377,-0.002659233727206182
0.4280936454849498,-1.8773187144621248,-0.7651426905483887,0.005109068903689929,-0.00000000000000008294003373127067,-0.000000000000000007371897638518993,-0.003916817648420328
0.43478260869565216,-1.8664364614593838,-0.820777120854165,0.008010412423547122,-0.00000000000000009415305815693911,0.000000000000000045192902025393246,-0.005731544182501282
0.4414715719063545,-1.855192680994878,-0.873114970511455,0.011091476906487034,-0.00000000000000021670197727227976,0.00000000000000014711225822686874,-0.007682292490019449
0.44816053511705684,-1.8432952428984575,-0.9194924566334661,0.01449748483510763,-0.000000000000000540551115504256,0.00000000000000033826683432852135,-0.009878974176650113
0.45484949832775917,-1.8309752796939183,-0.9615475309362914,0.017927945827461766,-0.0000000000000003477828925984351,0.00000000000000003871385382111309,-0.012142023681249106
0.46153846153846156,-1.8184069803607168,-1.0010938040293502,0.021320530217832177,0.000000000000000017937476544346252,-0.0000000000000003989351424247894,-0.014409453435927653
0.4682274247491639,-1.805367359917694,-1.0360341272714204,0.024384578001179158,0.00000000000000006996592017175194,-0.0000000000000003603247023843583,-0.01651510604217376
0.47491638795986624,-1.7919523692345727,-1.0688679674544663,0.026957475910396704,-0.0000000000000001582749011013437,-0.00000000000000031256742982856853,-0.018300451731109914
0.4816053511705686,-1.7782732424456942,-1.0997134111151787,0.029033873898317984,-0.00000000000000026004362924458746,-0.00000000000000019297472734838078,-0.01972751418754006
0.4882943143812709,-1.764440102612634,-1.1273433879610586,0.030207794268244725,0.0000000000000010268587156649113,0.00000000000000023417608503488284,-0.020405812215327654
0.49498327759197325,-1.750355820255505,-1.1523595479434112,0.04004087304665545,-0.0000000000000000614068483863386,0.00000000000000039068665207923373,-0.024978911144581457
0.5016722408026756,-1.7360463678781735,-1.1754744374766704,0.034789921972670626,-0.0000000000000004973438100377659,0.0000000000000009181867340870767,-0.021025656940134665
0.5083612040133779,-1.7214861525846552,-1.1967209080431043,-0.0009899149915016797,0.0000000000000015172926610679111,0.0000000000000021989835930174776,-0.00038546060778173814
0.5150501672240803,-1.7068010302480696,-1.2148880636255506,-0.0010104105736789583,0.0000000000000021647907021796717,0.0000000000000005069580086732381,-0.00038569473009461536
0.5217391304347826,-1.6920659416036465,-1.2307996114275261,-0.0010311152320158822,0.0000000000000006008332975981991,0.00000000000000021818179760895387,-0.00038569637488545047
0.5284280936454849,-1.677179965851818,-1.2445436413425515,-0.0010522223510257903,-0.0000000000000016583677215729066,-0.00000000000000019713269787058074,-0.0003854820433880295
0.5351170568561873,-1.662051053471743,-1.2560856809909404,-0.001073913315626208,-0.0000000000000030247396721615996,-0.000000000000001960450036844889,-0.0003850515348443955
0.5418060200668896,-1.6469670572604485,-1.2647991927671514,-0.0010956401335523768,-0.0000000000000003318592697241728,0.00000000000000113385443459583,-0.0003842454595665449
0.5484949832775919,-1.631694742118331,-1.2710121249452453,-0.001117844517226329,0.0000000000000013166084603125358,0.00000000000000021709029331936388,-0.00038318123277650815
0.5551839464882943,-1.6164068567772372,-1.2746468148637258,-0.0011402247401635038,0.0000000000000014214668715476908,-0.00000000000000004744789767145359,-0.00038186118079308644
0.5618729096989966,-1.6011836485572302,-1.2755772704907018,-0.0011626215627188086,0.000000000000000012331644009767503,0.0000000000000014829792650120092,-0.00038028067941150713
0.568561872909699,-1.5859715116014224,-1.2729836797462013,-0.0011850751620867844,-0.0000000000000019423309592799565,-0.0000000000000007498326775084673,-0.00037836896170317393
0.5752508361204013,-1.570646285077922,-1.2670200130880154,-0.001207879573528264,-0.0000000000000012716469649598058,-0.0000000000000008007819623504008,-0.00037613367930703934
0.5819397993311036,-1.5553459995572356,-1.2576863148419632,-0.0012307238012398806,0.0000000000000005146487107299508,-0.0000000000000004884711532041668,-0.00037362586828795595
0.5886287625418061,-1.5400582085454335,-1.2447234517025783,-0.0012536185105487664,0.0000000000000020593220923556212,-0.00000000000000012795274592657823,-0.00037084394862296646
0.5953177257525084,-1.524731960104147,-1.227893198696455,-0.0012766528259815825,0.0000000000000018196031278494792,0.00000000000000028386741628668345,-0.0003677828463030372
0.6020066889632107,-1.509619385877295,-1.2063098234921237,-0.0012994535282917544,0.0000000000000008665927861846735,-0.00000000000000019137826034171924,-0.0003643908961895366
0.6086956521739131,-1.4945068116504434,-1.1793979849572584,-0.001322286357859513,0.0000000000000002659729203215451,-0.0000000000000006993450638608,-0.0003607249859194977
0.6153846153846154,-1.4794813639873046,-1.14751643315747,-0.0013450037148990143,0.0000000000000003102967966266181,-0.0000000000000008059003803080988,-0.00035681180962428413
0.6220735785953178,-1.4645928813953744,-1.110825195372752,-0.0013675203623060939,0.000000000000001034052259646269,-0.00000000000000038989775910057387,-0.00035267244752990994
0.6287625418060201,-1.4498187433315421,-1.0663182298960816,-0.0013898821429145394,0.0000000000000012895904482074548,-0.0000000000000007630901582441281,-0.00034822590466109535
0.6354515050167224,-1.435300248451803,-1.014357455989013,-0.0014118321068877714,0.0000000000000031175185322169245,-0.0000000000000002696926599064819,-0.00034357684537969935
0.6421404682274248,-1.4209541551923992,-0.9552624590426986,-0.001433487839035245,0.000000000000004991418889877119,0.0000000000000012124804640442416,-0.0003387487282918923
0.6488294314381271,-1.4067508247354241,-0.8887511113857324,-0.0014548879244435527,0.0000000000000061285671172505955,0.00000000000000374773777333841,-0.00033374347160941196
0.6555183946488294,-1.392989280513169,-0.8085250641702647,-0.001475549152372534,0.000000000000004012046933305025,0.000000000000001626603930456375,-0.00032854848055334697
0.6622073578595318,-1.3795224974561384,-0.718185172553424,-0.0014957013037484842,0.0000000000000033994608522993908,-0.00000000000000025149393365647536,-0.0003232706458211296
0.6688963210702341,-1.3663519977388554,-0.6182650747046291,-0.0015153480246027093,0.0000000000000032918820690777417,-0.0000000000000017112895574254599,-0.0003179362514960054
0.6755852842809364,-1.353969326843978,-0.4969542254886865,-0.001533694521477817,-0.000000000000002489331395119201,-0.0000000000000008459770454013875,-0.00031263764007803094
0.6822742474916388,-1.3422914466895344,-0.35734803116081165,-0.0015509222423867233,-0.0000000000000039796104782762244,0.00000000000000030644144626354774,-0.0003075025587474633
0.6889632107023411,-1.3313042683823593,-0.19981221894742604,-0.0015670535518614228,-0.00000000000000126473172739658,0.000000000000001740226617600929,-0.0003025277385085587
0.6956521739130435,-1.3213085763179782,-0.014232423541870182,-0.001581619325843775,-0.0000000000000024687722872780884,0.0000000000000011986015574014838,-0.0002978330991660949
0.7023411371237458,-1.3117096696380635,0.18257036434970977,-0.0015955585842221626,-0.000000000000005241135067174579,-0.000000000000000133567914176112,-0.00029325058612444705
0.7090301003344481,-1.300392827387842,0.37232833684762934,-0.0016118365228725547,-0.000000000000004059717087677167,-0.000000000000001280413219239572,-0.0002876521432635457
