# n,energy,berry,bcd_x,bcd_y,qmd_x,qmd_y
0.0000003333333333333333,-3.1394993273265297,-0.00000001831860945179104,0,0,0,0
0.006688963210702341,-3.091564532261829,-0.0003743079719705707,0.0000000000000000015925326170718865,0.000000000000000000886392598507817,-0.0000000000000000007782174674196559,-0.0000000000000000009161622160571874
0.013377926421404682,-3.0443217706977292,-0.000745760267500251,0.00000000000000000148958065263611,0.0000000000000000004473211051425724,0.0000000000000000004675821958949929,-0.00000000000000000009661775479888043
0.020066889632107024,-2.9977656588294304,-0.0010905564188775727,0.0000000000000000024798340528978927,-0.0000000000000000010704537358446357,0.000000000000000001556883552356903,-0.0000000000000000021357335047700754
0.026755852842809364,-2.952012691828241,-0.0013804133136668644,0.0000000000000000025079333851524947,0.00000000000000000011715652073865293,0.0000000000000000007321294890575172,-0.00000000000000000020959456542735406
0.033444816053511704,-2.9068650015599666,-0.001588217901312193,0.000000000000000004315799537390073,0.0000000000000000005520172959877022,0.0000000000000000018939048545346756,-0.0000000000000000004365470887860664
0.04013377926421405,-2.867931584808218,-0.0016298711664127817,0.000000000000000003051440481044446,0.0000000000000000009731959178245865,0.000000000000000007961458912872458,-0.0000000000000000036178392472799435
0.046822742474916385,-2.844980059400288,-0.001435433345393058,0.000000000000000009846164616592978,-0.0000000000000000028287351586516755,0.000000000000000009621821543679127,0.0000000000000000030573380072385806
0.05351170568561873,-2.822188114904113,-0.001196433507380182,0.000000000000000005788824278235699,-0.0000000000000000050869143453135124,0.0000000000000000035315765884406895,-0.00000000000000000036634769570621286
0.06020066889632107,-2.7995906487986133,-0.0009108645958613781,-0.000015917851929252092,0.000013482959681231744,0.00003302449610897621,-0.00003272873025292282
0.06688963210702341,-2.7771468397080774,-0.0005764311987234604,-0.000014677729163773049,0.0000190676295660692,0.000052878105409326535,-0.00004186359983782301
0.07357859531772576,-2.7548753987953885,-0.00019125358230966675,-0.0000021443145414377857,0.000017751720295525522,0.000056270527337215746,-0.00003237882397868896
0.0802675585284281,-2.7328073293704134,0.00024719386922032114,0.000008157964819360337,0.00001849482738106452,0.0000622272612619207,-0.00002775051087839203
0.08695652173913043,-2.7108681264618206,0.0007392415721659883,0.00001875674374162368,0.00002013822764892936,0.00006865288827507661,-0.000024638455734071686
0.09364548494983277,-2.689133730655633,0.0012895776005274699,0.000030489716692241387,0.000022419140007490078,0.00007442881610265976,-0.000022126117706031307
0.10033444816053512,-2.6675691158662658,0.0018956219310359245,0.000043967515668492385,0.000025220577135637464,0.00007832513400201506,-0.000019844147036939717
0.10702341137123746,-2.646179442052539,0.0025617468923318214,0.00005956876140591599,0.00002852925299850538,0.00007883280417657043,-0.000017653640096286974
0.11371237458193979,-2.62493439351903,0.0032836884399106633,0.00007775151542408602,0.000032338235687338604,0.00007369488086269129,-0.000015592501744718326
0.12040133779264214,-2.6038787850492247,0.00405463889715459,0.00009892869579940544,0.000036674177533926824,0.00005973768400922112,-0.000013887510531039444
0.12709030100334448,-2.5829781951446433,0.0048791921623871845,0.00012360873171490686,0.000041586066913551934,0.00003237860009893092,-0.000013018036452771592
0.13377926421404682,-2.562268018172248,0.0057457142915516455,0.00015225036467264016,0.00004712356259641358,-0.000014746216472273711,-0.000013852008407034934
0.14046822742474915,-2.5417273868746255,0.006638663097782176,0.00019011933499293296,0.000051973758623114474,-0.00008769317056906602,-0.00003767512811485911
0.14715719063545152,-2.5213714337281097,0.007540760844243624,0.00024249175517807316,0.000056400709676369186,-0.00019716733922955722,-0.00011194502788388011
0.15384615384615385,-2.5011773457858406,0.008428483899755954,0.00027889159299738104,0.00007332050209941498,-0.00038308055989998905,-0.00012071446614647213
0.1605351170568562,-2.4811798928855313,0.009262708406618655,0.0003246259087495777,0.00008976113160354529,-0.0006471900045980819,-0.00015347390540016803
0.16722408026755853,-2.461364281189051,0.009968171420058626,0.0003774629116101926,0.00010763115941569129,-0.0010241979413179922,-0.00021074343955639608
0.17391304347826086,-2.4417387416297722,0.010468966911114408,0.00043695372307258885,0.00012758348069003914,-0.0015574562885572324,-0.0003019986699134644
0.1806020066889632,-2.4223218285551753,0.010611078164540128,0.0005025606259952207,0.00015003683616332585,-0.002302548750961983,-0.0004419529144765215
0.18729096989966554,-2.4031389826168486,0.010133261196059666,0.0005735276369487976,0.00017534880553654462,-0.003330445347944099,-0.0006513680128856858
0.1939799331103679,-2.38418791068487,0.008550883704498295,0.0006487592439346189,0.00020415083236941238,-0.0047766918572184555,-0.0009710610868389074
0.20066889632107024,-2.365500823738638,0.005048682803113935,0.0007254979563660746,0.00023651747688289716,-0.006750717851247394,-0.001440063717951433
0.20735785953177258,-2.347166719839317,-0.001970521325209325,0.0008000500579507575,0.0002725127578084871,-0.00939408019260837,-0.0021112850065017133
0.2140468227424749,-2.329312007747913,-0.016696496929103286,0.0008676655483036717,0.00031187612126021855,-0.012848387837742913,-0.0030437459324370317
0.22073578595317725,-2.312618362105406,-0.053923561079623025,0.0009216238164076138,0.0003525947647401337,-0.01706516106423056,-0.0042457463379108155
0.22742474916387959,-2.296198371793774,-0.10411934756038907,0.0009613321611078839,0.000396168900419218,-0.02231066535730593,-0.005812851040717643
0.23411371237458195,-2.2780597731962535,-0.1441158726474403,0.0009813371599479924,0.0004482986530915432,-0.029729749122894174,-0.008141080329349426
0.2408026755852843,-2.2580509106661464,-0.1688687068689581,0.0009599494645723359,0.0005095817328683286,-0.04041706346984291,-0.011686988247207937
0.24749163879598662,-2.236707603939781,-0.18469573700818467,0.0008699202395653071,0.0005759773689520582,-0.055197751219972245,-0.016888304988159897
0.25418060200668896,-2.214571925058049,-0.1894724165813587,0.0006884524450925225,0.0006397270976066117,-0.0744935987567017,-0.024096161524526073
0.2608695652173913,-2.193922166490219,-0.1588889871145017,0.00043486013688103057,0.0006867442589427395,-0.09593756087900653,-0.03256928836437911
0.26755852842809363,-2.176460229441815,-0.08930852021078357,0.00016341980763810455,0.0007114834595926511,-0.11618944084568726,-0.04095908967125609
0.27424749163879597,-2.159207213706024,-0.03315900852536804,-0.00015061615898700464,0.000713874439941235,-0.13767938131659505,-0.05032070730734328
0.2809364548494983,-2.1421831501625435,0.015316327435037382,-0.00048172023578243106,0.0006874180265470166,-0.15926462083364598,-0.06024270306491504
0.28762541806020064,-2.125392561071306,0.0597905904622997,0.0037026821176513835,-0.0020404964558554247,-0.20083724751757837,-0.07261145202436328
0.29431438127090304,-2.10885112199763,0.10200593485629322,0.004618195006529504,-0.002960042458496319,-0.23950115372426686,-0.08700525804939999
0.3010033444816054,-2.0925809778388054,0.14344869399574575,0.0010833537009956164,-0.0013097320253523692,-0.26941318678180176,-0.10294966461131119
0.3076923076923077,-2.076628577153527,0.18553186125478904,0.0002525215286958266,-0.0010788236891417578,-0.3077274753855062,-0.12028920150885287
0.31438127090301005,-2.061244812189715,0.23230401257316016,-0.00027141017250230647,-0.0008796214031881195,-0.3463112192247915,-0.13850107376835696
0.3210702341137124,-2.0469018866104305,0.29252393027744533,-0.0006466845241529624,-0.0006764912334632001,-0.3826926803565238,-0.15623435497549376
0.3277591973244147,-2.032979169671745,0.35997272643313616,-0.000920810091422392,-0.0004650144232664996,-0.4183824392477947,-0.17406342205783376
0.33444816053511706,-2.0178848034471133,0.4231623556438546,-0.0010662717977276003,-0.0002210398239005606,-0.4580362698585275,-0.19443624809331453
0.3411371237458194,-2.0016810065041923,0.4793043932808033,-0.001058840622391175,0.00003852115763485652,-0.5049298084874806,-0.21813467135069517
0.34782608695652173,-1.9847445327616922,0.5313224028207678,-0.000875429802897439,0.00029686647901506526,-0.5672429739855129,-0.24639220515113613
0.35451505016722407,-1.9672558047903534,0.5806329310719937,-0.0004193312910818741,0.0005092113143066153,-0.6818096787425789,-0.27551494181951564
0.3612040133779264,-1.9493420930632082,0.6278328401634321,0.009781776140008793,-0.004621074802398637,-31.50156469403172,54.27505987677853
0.36789297658862874,-1.9311979754808852,0.6704801157067064,0.04675648214531581,-0.02475848090043763,-149.27335804562176,263.88180536859846
0.3745819397993311,-1.9135790798260806,0.6867906325349338,0.0035885904671115534,-0.0012084185901145017,-10.164513268793769,17.235752904501112
0.38127090301003347,-1.8992650789338852,0.6878714387050954,0.000029480263069893474,-0.0012400614680240164,-0.18601878795491408,-0.10027085277690263
0.3879598662207358,-1.885444953884476,0.6963196179981541,-0.0003750511694930769,-0.0026278422722673515,-0.09601032531528084,-0.03755512837283868
0.39464882943143814,-1.8718929193845306,0.7141953525383743,-0.0006233385404262579,-0.0035314587436417345,-0.0776200729480757,-0.025972873483391674
0.4013377926421405,-1.8585192662300296,0.7488511318958331,-0.0008088851697057062,-0.004180720059054732,-0.07685136485235479,-0.02687267643724683
0.4080267558528428,-1.8453137532236639,0.7909061888764668,-0.0009962568665152238,-0.004748678272173232,-0.07849753491163493,-0.029665919467449176
0.41471571906354515,-1.8323178580705384,0.8417747679481912,-0.0011888809056991832,-0.005223014683052975,-0.0824611111526838,-0.03433760466490987
0.4214046822742475,-1.8198312818417355,0.9067328394994735,-0.004135530427043078,-0.004068235047000842,-0.07591696602266018,-0.024871346791427072
0.4280936454849498,-1.807609907702821,0.9783395306476441,-0.006524300126340675,-0.0031916123308197023,-0.06985671821641767,-0.016470234629712414
0.43478260869565216,-1.7960664078693018,1.0661586015195104,-0.005222472762558324,-0.004306639374627343,-0.07180396696921469,-0.02037221573524324
0.4414715719063545,-1.785228480786814,1.169138276906838,-0.004436787431671282,-0.005041603571138132,-0.07429608558470414,-0.02408497618008916
0.44816053511705684,-1.7752838861603004,1.2913129396941945,-0.004304594499978956,-0.005295366536019772,-0.07747806918139344,-0.027558162523917684
0.45484949832775917,-1.7663167386389553,1.43408306118691,-0.0042747772873876246,-0.0055022056108819705,-0.08215611012551388,-0.03219381227973753
0.46153846153846156,-1.7589135194892513,1.6098061905978562,-0.004408762587303176,-0.005633965837465714,-0.08922786272817569,-0.03868941895946097
0.4682274247491639,-1.7515103003395476,1.7855293200088012,-0.004542747887218726,-0.005765726064049458,-0.09629961533083745,-0.04518502563918437
0.47491638795986624,-1.7412942002284642,1.9185836682246311,-0.004755159776706066,-0.00603481920908153,-0.11668170084965915,-0.06023213678892337
0.4816053511705686,-1.7293681420884384,2.025699547663597,-0.005015247404471037,-0.006387397410809233,-0.14515517414861764,-0.08047773089219257
0.4882943143812709,-1.716307735818395,2.120432258727956,-0.005057550418002121,-0.005744395421269206,-0.16610873034403412,-0.09490962444828352
0.49498327759197325,-1.7029307046348452,2.211530511919873,-0.00511960200270154,-0.004853064893686979,-0.18277719262725375,-0.10737149077471202
0.5016722408026756,-1.6891894643498961,2.2983291278172207,-0.005258198411420673,-0.0036958442379955198,-0.19305546889125452,-0.11733515557013133
0.5083612040133779,-1.6751453613452867,2.382660572064994,-0.005643980390212002,-0.0023627881234313166,-0.19829477088313505,-0.12507852564942626
0.5150501672240803,-1.6609801490683425,2.4661413468435938,-0.00620470562644868,-0.0009243415476491111,-0.20113016831967284,-0.1316538412908627
0.5217391304347826,-1.646710013647778,2.548959088531921,-0.006958397108471706,0.0006244950954148968,-0.2016713397922408,-0.1370647594349168
0.5284280936454849,-1.6323937015719083,2.631725198394204,-0.008025462993430684,0.0023955814213243473,-0.19896596148858556,-0.14053789691749374
0.5351170568561873,-1.6180984229161253,2.7146489273222,-0.009265878704126257,0.00432103630150521,-0.1940047678004711,-0.1425345912469663
0.5418060200668896,-1.6038371213337135,2.7975905740815934,-0.010672831264428341,0.0064008029466055055,-0.18616413766396753,-0.14264653138748848
0.5484949832775919,-1.589694588819427,2.879727983629306,-0.012307353006528807,0.00872079074701114,-0.1702576756860613,-0.13749893404062682
0.5551839464882943,-1.575723426384782,2.9574184117102313,-0.014143698503302344,0.011108691351900256,-0.1248156322000413,-0.11358054028259758
0.5618729096989966,-1.5619440729678846,3.024587316272685,-0.016516330315102058,0.013631108251899662,-0.10109509313236123,-0.06958997233124434
0.568561872909699,-1.548596320562699,3.0586149687223405,-0.020625656872686356,0.016556097960693187,-0.21978272403167515,0.01796572263727131
0.5752508361204013,-1.534559166980204,3.1119257233685564,-0.025528542693501546,0.021018258318787737,0.5580054044940171,-0.21921873474849407
0.5819397993311036,-1.5201711403415699,3.1833461604138855,-0.02549575039716831,0.02370363932842969,1.301556361407751,-0.39113382506181477
0.5886287625418061,-1.5057513471107975,3.2809623888655373,-0.009209974420382665,0.018652650762351192,0.5900291991563504,0.12532344242231108
0.5953177257525084,-1.4915144420257433,3.3997209781599964,-0.007333674254868322,0.018907183137331723,0.41584706054143733,0.19484221344015173
0.6020066889632107,-1.4774290933039242,3.5385261128779915,-0.008428632894469927,0.020176881962328728,0.3697797748799341,0.17581234292041606
0.6086956521739131,-1.4635230363536345,3.7020415874150996,-0.009505041391361388,0.021315422084130366,0.3503230869953602,0.16305197302604538
0.6153846153846154,-1.449707737321924,3.867882640975227,-0.010402412347373657,0.022106529451045014,0.3432659431798067,0.15667544378768614
0.6220735785953178,-1.43548880299743,3.8595816844237283,-0.011158787277944898,0.02266583860411271,0.33991292629356606,0.15256066964546477
0.6287625418060201,-1.4208101852554698,3.624387098605407,-0.011730374642426124,0.022940245578144045,0.34000294975576106,0.1507232267723919
0.6354515050167224,-1.407536252467719,3.3639632681333236,-0.011855333746134395,0.0227241971823949,0.34196362998939445,0.1507280358682732
0.6421404682274248,-1.395301371929432,3.08592546970525,-0.011769409853787775,0.02232922823363669,0.34368754026192144,0.1508666491525066
0.6488294314381271,-1.384070127509684,2.7908740760123094,-0.01147979091941059,0.021761437244945836,0.34518275088544215,0.1511345059048248
0.6555183946488294,-1.375289035935374,2.4593943297974303,-0.011059779513206835,0.021169422284287275,0.34576780560032017,0.15109761016992107
0.6622073578595318,-1.3676210826647996,2.1113646795185375,-0.010580529004765346,0.02056640203833964,0.3459393639057117,0.15092226116777846
0.6688963210702341,-1.35984181162336,1.7627667204876685,-0.010084649198323572,0.019949105747056772,0.3460679339210508,0.15071982309213464
0.6755852842809364,-1.3466916421345387,1.3867488035301814,-0.008786433249895757,0.01864301386519058,0.34412238999660255,0.14921038199552436
0.6822742474916388,-1.333296020862888,0.948234799709104,-0.007242775769003392,0.017235373147432523,0.340944451252089,0.14699166043785192
0.6889632107023411,-1.3196179776438368,0.43781149315892254,-0.005416708134995172,0.015710888218326082,0.33634849328996774,0.14395682596889137
0.6956521739130435,-1.304269135535364,0.12911520086141748,-0.002856488618873128,0.013928623955589596,0.328353318208202,0.1389477937687501
0.7023411371237458,-1.2881181774168229,-0.12708557163395834,0.00022210937759017946,0.012077991560158556,0.3178249310207767,0.13255792827603818
0.7090301003344481,-1.271217907835063,-0.3490097061578896,0.0039118334887512166,0.010223812991416729,0.30434980993245064,0.12465460896928471
0.7157190635451505,-1.253672044111618,-0.559231017544362,0.00831856720987022,0.008470330563102814,0.2875338486966591,0.11518032700019616
0.7224080267558528,-1.2355103902676041,-0.7737497031655783,0.013699298518468992,0.006905000080343675,0.26693885095269276,0.10404618466234634
0.7290969899665551,-1.2167459984757276,-1.0080516223518514,0.02077030847716613,0.005446089202932468,0.2428496791914903,0.09122677157348548
0.7357859531772575,-1.197426957555449,-1.2855199568085582,0.012751060809011392,0.0158612430706318,0.19135467782415372,0.08001813339824498
0.7424749163879598,-1.1775434851800861,-1.631003568977751,0.015636727890013438,0.015010774325345488,0.1813034639685885,0.07404180083087301
0.7491638795986622,-1.1553763041442853,-1.884023371709602,0.019445130143657934,0.013354096454263763,0.16767068999498203,0.06585111295232791
0.7558528428093646,-1.1291233450655649,-1.695866793371811,0.023321787688867467,0.011296504849792107,0.14408429757407826,0.053931564718772196
0.7625418060200669,-1.103785944598848,-1.4799881188578872,0.025908503038567524,0.009316430797295692,0.11688929401221704,0.04180228333803898
0.7692307692307693,-1.0797053135933867,-1.2237436990781099,0.02697007534788319,0.007557243491415988,0.09005275458571721,0.0310509976772037
0.7759197324414716,-1.0574420538106006,-0.8918380861458748,0.026684354693546516,0.006129095388202334,0.06703852880026666,0.02270516830359659
0.782608695652174,-1.0377096267714285,-0.45541646483239184,0.025549471240443444,0.005064632423216724,0.04959735215870648,0.01695415157481095
0.7892976588628763,-1.0167320119237464,-0.18939244580830877,0.02372554824032958,0.004132209691758403,0.03451589163096608,0.012421069551324488
0.7959866220735786,-0.9943211940762402,-0.058136785647699044,0.021372007767977676,0.003339147999206425,0.022262058029455557,0.009117898800769367
0.802675585284281,-0.9711082204169159,0.01656291995152506,0.018787900200572333,0.002701354089958257,0.01326466069288107,0.006999765319191398
0.8093645484949833,-0.9471625472692656,0.06031481312428821,0.016234837513304907,0.0021997047796780533,0.0072612112528171145,0.005830512133395156
0.8160535117056856,-0.922639355261054,0.08913278046606814,0.01388920602336109,0.0017864469506741177,0.0033022030990118405,0.005228514979582696
0.822742474916388,-0.8975834572156025,0.10892789876160125,0.011839355382576685,0.0014309987826850365,0.0007948322578312317,0.004987528390974297
0.8294314381270903,-0.8720260642342021,0.12309273525808652,0.01012254777489269,0.001105956153888793,-0.000736515375065671,0.004970776952067717
0.8361204013377926,-0.8459048824787242,0.133247040617126,0.00877163210000978,0.0007862332498316675,-0.0016134361541337303,0.005108722129481292
0.842809364548495,-0.8192207795285317,0.14091727584203162,0.007775876428263604,0.0004445134906239753,-0.002117182537592918,0.005364684151470694
0.8494983277591973,-0.7920967952406841,0.14725364828728982,0.007096122942250897,0.00005630781842302801,-0.002441816423961424,0.005730645134538136
0.8561872909698997,-0.7644468136298339,0.15286377035318313,0.006759349627567639,-0.0004221161014631521,-0.0026858724923948577,0.006252743885289751
0.862876254180602,-0.7362453065625959,0.15822478742505394,0.006852596163039859,-0.001066012471588057,-0.002928450947209548,0.007041472147318877
0.8695652173913043,-0.7075881152906844,0.16350350099421473,0.0075031367260172425,-0.0019832960485346557,-0.003236236386524084,0.008259161142971011
0.8762541806020067,-0.6783352741395757,0.16928443607856766,0.009736996146339369,-0.0037674433613883378,-0.003791891972447821,0.010833237204879553
0.882943143812709,-0.6486253162812532,0.17576846498310367,0.02015630806970604,-0.010235505457986807,-0.0056890484886427135,0.02046451589577636
0.8896321070234113,-0.6183584107342744,0.1833166161178456,-0.0025517752579597482,0.0025623849629334925,-0.001959146005345197,0.0021172062597170304
