# n,energy,berry,bcd_x,bcd_y,qmd_x,qmd_y
0.00000016666666666666665,-3.058910491821357,0.000000004678237773238225,0,0,0,0
0.006688963210702341,-3.034504234811184,0.0002327047503308533,0.0003233051262881583,-0.0000000003747546562803321,-0.0000000015825970027320909,0.00007278818412395814
0.013377926421404682,-3.0112895210674133,0.0004805776134875469,0.0008816949965916789,-0.0000000001811836939833515,-0.000000000299010765726463,0.0001664443474727625
0.020066889632107024,-2.9882581262887444,0.0007429850213377442,0.0016030264727760367,-0.0000000006390498889174991,-0.0000000020349455640248697,0.0002774596251798887
0.026755852842809364,-2.965426866255882,0.0010202030493115144,0.002449985392128904,0.0000000003657689609604369,0.0000000014020255369508695,0.00039820243460632175
0.033444816053511704,-2.942769478030469,0.0013130980808457268,0.0033960653595290426,-0.00000000020493257936027976,0.0000000019974717716769035,0.0005216654592428548
0.04013377926421405,-2.9203025959835163,0.001622330576700023,0.004416391142163323,0.000000000564506877094546,-0.000000002552731152133179,0.0006403841587396757
0.046822742474916385,-2.898058295910188,0.0019494892903407644,0.005488442269281213,-0.0000000002378973075812629,0.0000000026229035012219323,0.0007450394270091623
0.05351170568561873,-2.87599162476826,0.002294302279151939,0.006587362708023693,0.00000000031154348125922236,0.0000000015236826570817822,0.0008263204842786991
0.06020066889632107,-2.854126538936029,0.0026578598602532877,0.007687069747306064,0.0000000000976165822662334,0.0000000008818188716631143,0.0008745788082068038
0.06688963210702341,-2.8324549798961853,0.0030408334125152205,0.00876456861922012,0.00000000011541089289906944,-0.000000004031157184351267,0.0008784243635508336
0.07357859531772576,-2.810994098783116,0.0034436534941413017,0.009794883389014773,-0.00000000012651620263478157,-0.000000002933759349047926,0.000824736375008185
0.0802675585284281,-2.789729709527429,0.0038670619756559534,0.010753626931450695,-0.0000000006171082147551,-0.0000000023669453131360315,0.0006981888379333528
0.08695652173913043,-2.7686599442638657,0.004312061481190267,0.01161456004915512,-0.0000000008134293998240464,-0.0000000015064834119953849,0.00048071423170609954
0.09364548494983277,-2.747806387032838,0.00477959649780142,0.012352745870511108,0.0002626181055373549,0.0013910053463226033,-0.00023753825804683393
0.10033444816053512,-2.7271497960205355,0.005271527147101493,0.01283646660733385,0.00014437002227169436,0.001680560322184576,-0.0009965557241243825
0.10702341137123746,-2.7067110284058367,0.005789779731681273,0.013222855564501977,0.0000023290286207568834,0.0012256440420539882,-0.0015965877314178722
0.11371237458193979,-2.6864944935145165,0.006334297273807121,0.013442682248746179,0.00001657755540669023,0.001117833728984097,-0.002402857397613661
0.12040133779264214,-2.6664891612695394,0.006907856085929728,0.01338902294554889,0.000028188228063920334,0.001062977877932047,-0.003490467793916211
0.12709030100334448,-2.646708701138503,0.007512587176239915,0.013036656763276297,0.00004010092314379754,0.0009965640597459694,-0.00487393685109818
0.13377926421404682,-2.6271656112573853,0.008148655812076059,0.012350876359069927,0.00005288570546910653,0.0008939058257791573,-0.006601884015362248
0.14046822742474915,-2.607854983331533,0.008821727659567638,0.01129443753718261,0.00006671598069310637,0.0007386539668985023,-0.008741730574142736
0.14715719063545152,-2.5888007365829546,0.00953403933486023,0.00983270239530175,0.00008170620208300008,0.0005175557007631362,-0.011375778537019416
0.15384615384615385,-2.5700118210342207,0.010288672692974708,0.007935550179309104,0.00009795410439401399,0.0002194028402442943,-0.01460769618122745
0.1605351170568562,-2.5514872517420626,0.011092020336093219,0.005580901155260971,0.0001155817570783877,-0.00016494863297985667,-0.01856779331341194
0.16722408026755853,-2.533240174615943,0.011948019145544277,0.002763802560265923,0.00013474392853673447,-0.0006416034014325671,-0.02341313492773106
0.17391304347826086,-2.5152889527107165,0.012862725460967114,-0.0004946792052999036,0.00015560545454366552,-0.0012130190373617464,-0.029330102194030403
0.1806020066889632,-2.497645377148782,0.01384769021605338,-0.004139249841312375,0.00017832064685636262,-0.0018781117108190304,-0.036537599152403386
0.18729096989966554,-2.4803172858071956,0.014909140721538174,-0.00807185857143308,0.00020298349058305997,-0.0026323891465777354,-0.045283200743229966
0.1939799331103679,-2.4634304771171407,0.016080985086584322,-0.012086185670220597,0.0002297880470294125,-0.0034767893862459173,-0.056188501589626266
0.20066889632107024,-2.4469670424750904,0.01737068262125802,-0.015761739103181162,0.0002582295707502018,-0.004389282398923218,-0.06957385975169807
0.20735785953177258,-2.4309566244418246,0.018803809542975464,-0.01856488134280773,0.00028764366670270517,-0.005349023886234242,-0.08568700559337948
0.2140468227424749,-2.415454778950116,0.020407938620437733,-0.019858574539985265,0.00031730197491866395,-0.006338145830588209,-0.10476398987599339
0.22073578595317725,-2.400492655568823,0.02220200242453719,-0.01915362542338802,0.00034658523728071385,-0.007341415114301265,-0.12684311266387427
0.22742474916387959,-2.386558787727266,0.02440911834851695,-0.013576966194181679,0.00037353557236598586,-0.00832773117696969,-0.1538071775997913
0.23411371237458195,-2.3739735301723135,0.02724291297391858,-0.003899690755122808,0.00039685732607134573,-0.009241162784684703,-0.18225488450101157
0.2408026755852843,-2.362189240869996,0.030448905371669405,0.008213027623201856,0.0004180239883345886,-0.010111306768756212,-0.2115837578328073
0.24749163879598662,-2.3504137239978307,0.03236920504773043,0.02022105241277084,0.0004361486423306155,-0.01100675216160643,-0.21480363287528456
0.25418060200668896,-2.338169993069967,0.03424094781395446,0.030189901119876572,0.0004534267543314877,-0.011944442008035076,-0.21615548887031122
0.2608695652173913,-2.324473319786475,0.03623311358280814,0.03386097419851187,0.0004687222426486152,-0.013007724992387733,-0.21721944401965881
0.26755852842809363,-2.3090577640212997,0.03904607235878133,0.027974245492941714,0.0004794607352835723,-0.014212430623641392,-0.22945913646146476
0.27424749163879597,-2.292354327034388,0.043009375155602686,0.016639191287546894,0.0004836676360766987,-0.015501871574072457,-0.2557652474409831
0.2809364548494983,-2.274417103093876,0.049251593187084004,0.01958894663838253,0.00047804143976354726,-0.016817773208373722,-0.30705232774445523
0.28762541806020064,-2.2553257297010703,0.06118058381322244,0.15721576203165735,0.0004589254104786476,-0.01800464806498109,-0.4081621128357928
0.29431438127090304,-2.2352261710114805,0.09192623597239612,1.2837109994715024,0.00042232543600016786,-0.018664812425655486,-0.5972000196161237
0.3010033444816054,-2.2145734487648463,0.26724316082061783,3.6556758348784038,0.0006695709234572154,-0.003139630005009275,0.0705951100577894
0.3076923076923077,-2.192545853676627,0.5887973049761661,2.357657846251362,0.0007108341098885533,0.007683100325562086,2.178521598646568
0.31438127090301005,-2.167296052125493,0.3971080881818608,-4.758959016899677,0.00020347821595209715,0.0002348256045674197,6.189396279883127
0.3210702341137124,-2.1394962767216548,0.10394775216647614,-2.292600588056607,-0.0001383352820156343,0.032076679397905934,9.047028787310028
0.3277591973244147,-2.1098258783507613,-0.11932383462000933,0.2838916952241364,-0.0006951735299299839,0.06411031214546414,8.935384363721438
0.33444816053511706,-2.080620315942751,-0.3865086544629303,1.5733170315613054,0.000030830005328230425,0.035620916929360764,7.250146011721921
0.3411371237458194,-2.0430010893867414,-0.5861188231527102,1.5068239609211531,0.006454584120214829,0.12924077606766993,5.207388840118029
0.34782608695652173,-1.9828109973272967,-0.5034323116784706,0.952675816545845,0.012130951783683296,0.20758060758821678,3.255138493701274
0.35451505016722407,-1.9415820754174993,-0.4296332516020626,0.675000058502859,0.008759084158351227,0.14970763121380612,2.2324106756997075
0.3612040133779264,-1.9195704206470232,-0.4014426733636374,0.5577483183970009,0.007916117879817159,0.1182467240121868,1.7262670157993694
0.36789297658862874,-1.903204705237056,-0.37244454184270065,0.4783378879614826,0.006329945037707117,0.10063934552596754,1.389220062806111
0.3745819397993311,-1.8884668042529322,-0.34596282190273336,0.4148144583440519,0.0054150239323178945,0.08639537277998406,1.142743130999433
0.38127090301003347,-1.8742462651178657,-0.32152807125154825,0.36148840918383657,0.004671472240416309,0.06919496944452799,0.9269797071463285
0.3879598662207358,-1.8604788264764052,-0.2989205854948769,0.3163112444216683,0.004039327094422334,0.052839566426587214,0.7354095527597095
0.39464882943143814,-1.8473434092876837,-0.2788904166409438,0.28044270368308866,0.003473333666237492,0.04591551558013295,0.5711376770681897
0.4013377926421405,-1.8347595235706489,-0.26083961612897955,0.25343188922851256,0.0030890033806755183,0.03972037016869515,0.4245916742716824
0.4080267558528428,-1.8224872821145868,-0.24380895913154638,0.23114034932722585,0.0028004680178977323,0.03401368351095468,0.2872766535893669
0.41471571906354515,-1.8110105913922185,-0.22848144699132863,0.21827631323804478,0.002693648410831454,0.030255908184818422,0.16633029135302727
0.4214046822742475,-1.799857905678986,-0.21306301434866703,0.20814920399812628,0.006430071133721205,0.0756931082074445,0.05855823213197567
0.4280936454849498,-1.7893278847925094,-0.19746985292926925,0.2032818532013981,0.017552342075265116,0.21567199721343178,-0.023895776832643642
0.43478260869565216,-1.7794038254154103,-0.1791716614876237,0.20013016471689288,0.022293992407185072,0.27274525833208646,-0.12346402240770121
0.4414715719063545,-1.7702210233444569,-0.15756447560276154,0.19907720231338863,0.019230391792583346,0.22840217296501672,-0.24396767845069
0.44816053511705684,-1.7613945466657615,-0.1320327579746201,0.19234180572272241,0.01692472344796969,0.18893363438020738,-0.3462544016342124
0.45484949832775917,-1.7534858372698625,-0.09639284454417452,0.17097048282163635,0.01657121864568031,0.1620201919306144,-0.40162079487614355
0.46153846153846156,-1.7455771278739636,-0.060752931113728634,0.1495991599205501,0.016217713843390925,0.13510674948102117,-0.45698718811807515
0.4682274247491639,-1.7371036780762399,-0.04480369993756004,0.1297105892415956,0.01283165330274749,0.09613717885364767,-0.40860007467218706
0.47491638795986624,-1.7284518374621152,-0.03507438302905691,0.11029039195787202,0.008487665735457624,0.05335930525853455,-0.32743918994533083
0.4816053511705686,-1.7201351647644985,-0.04363126407238223,0.0946241728758552,0.006426805125087663,0.03072563396558233,-0.24460672322511756
0.4882943143812709,-1.7122172946106538,-0.07394614133172613,0.08342465833914192,0.007082543548601952,0.03206072198606103,-0.15978530971661958
0.49498327759197325,-1.7042994244568093,-0.10426101859107002,0.07222514380242862,0.0077382819721162404,0.03339581000653973,-0.07496389620812158
0.5016722408026756,-1.697497248741355,-0.174965551509905,0.07249898354307839,0.008463220975484631,0.035379445317786494,-0.007029917536889113
0.5083612040133779,-1.690766486047205,-0.24825533289895474,0.07350720616244957,0.00919258934796461,0.037404592641550896,0.05982313547736434
0.5150501672240803,-1.684035723353055,-0.3215451142880044,0.07451542878182077,0.009921957720444586,0.0394297399653153,0.1266761884916178
0.5217391304347826,-1.6743116158173654,-0.3143534693709233,0.07916980598966432,0.011195316956839146,0.043296451972586886,0.21557755552499708
0.5284280936454849,-1.664523751926706,-0.3054476208937096,0.08390184398786935,0.012480262855130762,0.047202388144756774,0.30494853772452346
0.5351170568561873,-1.6534821691279322,-0.2604014068782169,0.0822090053172436,0.014094042097345244,0.05230735258707639,0.4011507606534781
0.5418060200668896,-1.6422336765535115,-0.20830233133858558,0.07872957238427702,0.015755275024097442,0.057603006874991654,0.49745136728742123
0.5484949832775919,-1.6302444676674757,-0.12871480716449546,0.06735965335816557,0.01757235996081458,0.06356650629265095,0.5919864091791214
0.5551839464882943,-1.6179211557322268,-0.03353641102657236,0.05011300079135685,0.019363093979985722,0.06966279349019781,0.6808947129384726
0.5618729096989966,-1.605248021638773,0.0779663870931254,0.02671312210091225,0.02112623730560187,0.07589811595800924,0.7639115479376596
0.568561872909699,-1.5920916238733591,0.2200503541041629,-0.009612115147822977,0.022506336208688617,0.08172239293238237,0.8254008398898637
0.5752508361204013,-1.578736702119796,0.3793888774897816,-0.05288067642874329,0.02350418392648171,0.0869717427104455,0.8695196356348932
0.5819397993311036,-1.5651565457961296,0.5598315520477897,-0.10455879752764172,0.023995104635894757,0.09143656039916101,0.8911536903505655
0.5886287625418061,-1.5513775897750415,0.7759113913052514,-0.16557468965297778,0.023375846716955022,0.09393060674638087,0.8630957389298826
0.5953177257525084,-1.5375792599967149,1.0137951964648952,-0.22664241030994214,0.021980682787721903,0.09495955675003269,0.7994905983350827
0.6020066889632107,-1.5237883874996312,1.27372415011654,-0.28609540800531524,0.019797697180512993,0.09447923647786904,0.6992823857781817
0.6086956521739131,-1.5102615182164232,1.5729017152438876,-0.32591101163259517,0.01635235346053561,0.09136525679177353,0.5331357455364981
0.6153846153846154,-1.4971803598059634,1.8968298120056621,-0.3392111602213755,0.012377763694216953,0.08729968635680743,0.33470057372796413
0.6220735785953178,-1.4844565457444372,2.2395087096677293,-0.3322534210936958,0.008051957852444535,0.08239206500723932,0.1125052530144109
0.6287625418060201,-1.4737680665210433,2.623873821134042,-0.26953872035352433,0.0060818161576866574,0.06797350053180655,-0.11828254116225329
0.6354515050167224,-1.4632385725162906,3.018117595122056,-0.20289910384724863,0.003837422406342256,0.054910404542751784,-0.3385599148972323
0.6421404682274248,-1.4536052687369347,3.468046802432652,-0.11413497051391815,0.000047086117019349075,0.04948800382527467,-0.4995906734743276
0.6488294314381271,-1.4437607748077435,3.9052676932300847,-0.02886996572201979,-0.003651295775003748,0.03969292022310488,-0.6471643374535834
0.6555183946488294,-1.4315532475793273,4.200293623130437,0.01724284722704752,-0.0063207882846434945,-0.019028665261525517,-0.6441648678359533
0.6622073578595318,-1.4156251328264013,4.460448627281872,0.1739153465951957,-0.015356066783777041,-0.0200726253818412,-0.5960762340125552
0.6688963210702341,-1.3934421405867143,4.642209988410412,0.27389168459136515,-0.031066617327104928,0.032754136591558666,-0.1351252377557166
0.6755852842809364,-1.3671827190726327,4.735505542851937,-0.267652917147987,-0.048781180414319225,0.05285611692782263,0.9457135572558144
0.6822742474916388,-1.337539425220861,4.684249233488867,-1.0375965192355847,-0.05565943524898678,0.061479211843438554,1.5892921309586947
0.6889632107023411,-1.3009524489524598,4.112841276729562,-0.8890176592352171,-0.052532621069803026,0.05733620158779578,1.3838561545817676
0.6956521739130435,-1.2681027278377364,3.608171069252356,-0.7995592453103997,-0.04393252493916676,0.04730688784967925,1.0340059993771966
0.7023411371237458,-1.2385466482187202,3.1726059626151555,-0.8181600414486191,-0.035126715442294856,0.03772783614580865,0.7122988336496671
0.7090301003344481,-1.211603188302274,2.794361976804878,-0.9089752292583807,-0.02757188213999428,0.029945902912519962,0.46972310676924506
0.7157190635451505,-1.1869971497541152,2.464599156621033,-1.0335598441313163,-0.021400579904187762,0.023904344341765322,0.3084092093673738
0.7224080267558528,-1.1648732343989756,2.177644068564393,-1.1614164386321115,-0.0165399278712709,0.01938377963747444,0.21823300161021728
0.7290969899665551,-1.145269826533541,1.9203923108950796,-1.2735106261787503,-0.012638288015957328,0.015909390402616377,0.17650064640905092
0.7357859531772575,-1.1296778246157788,1.6707965005987266,-1.3643794042144823,-0.009757403361488502,0.013389168507660268,0.17648048631201987
0.7424749163879598,-1.1132609052310922,1.4735500363802412,-1.4063549067061194,-0.006804788191184285,0.010744778765828427,0.17373993338298685
0.7491638795986622,-1.0955633232451842,1.3262228537439176,-1.3540954260513776,-0.0036152611215981363,0.007671763997268592,0.16351997548444422
0.7558528428093646,-1.0767586799235727,1.2213911692325503,-1.210781214840222,-0.00011409047679750172,0.0038141955363426073,0.14357338320730936
0.7625418060200669,-1.057511217237325,1.1447738564168441,-1.025465030782514,0.0036035976159710177,-0.0010590937886727583,0.11425991586811804
0.7692307692307693,-1.038182891714301,1.088312443190078,-0.8251068606473331,0.0072508991171127395,-0.006780152486196815,0.07447992654385463
0.7759197324414716,-1.0192183778426027,1.0464058885996572,-0.6195274079187187,0.010296140136684626,-0.012487758345278583,0.022108077170739968
0.782608695652174,-1.000885258626807,1.0153145817901112,-0.4099123209455262,0.012316578852525878,-0.01715727853198299,-0.03391980590945669
0.7892976588628763,-0.9828914395273779,0.9963065402073389,-0.2084198733277164,0.013240181233160992,-0.020273531793575432,-0.06693546562566721
0.7959866220735786,-0.9647672195592703,0.9960034229208933,-0.05736402196412333,0.013203755582800392,-0.021746375374650777,-0.05936743066439193
0.802675585284281,-0.945892008764085,0.9992270379669574,0.04922219833931633,0.012421558617553901,-0.021701785859960448,-0.05714990113483284
0.8093645484949833,-0.9255484287401645,0.9967422417366334,0.1190189605481442,0.011131199630397496,-0.02029793025504454,-0.05626499359983194
0.8160535117056856,-0.9042469182699856,0.9940833577577631,0.15648000996748654,0.009638001601463138,-0.017811407400277667,-0.05218225011235029
0.822742474916388,-0.8822075014315885,0.9921460244632672,0.16790141860198113,0.008163008646957778,-0.014554280483309368,-0.04554247221111388
0.8294314381270903,-0.8594951523114588,0.9912828387107767,0.15913152780370032,0.006832314087471969,-0.010895133225136753,-0.037439607438395896
0.8361204013377926,-0.8361770395020701,0.9916800066969168,0.13494728802775646,0.005694876512175191,-0.007312714199746787,-0.02884397174426117
0.842809364548495,-0.8122874706870395,0.993365603831768,0.0990729268564442,0.004748105844391088,-0.004310403384836967,-0.020509811100863615
0.8494983277591973,-0.787892004198404,0.9963634512738697,0.0544147127927551,0.003961718099034223,-0.0022403394344609846,-0.012979434846126101
0.8561872909698997,-0.7629367659976731,1.00082446038524,0.0024204821942870533,0.0033072524963458157,-0.0012900601268899968,-0.00667185500309435
0.862876254180602,-0.7375064492268114,1.0065674586271458,-0.054367264501188034,0.002726687165384616,-0.0011375103407642612,-0.0014382111650458396
0.8695652173913043,-0.7116330050240499,1.0138135985528967,-0.1145735115869562,0.0021632212512813554,-0.0015180148665719971,0.002972616010508513
0.8762541806020067,-0.6853514422133498,1.0224558465724858,-0.17713752758252815,0.001480523808071081,-0.002324353071955782,0.006868727796037579
0.882943143812709,-0.6586374742624875,1.0329766264864648,-0.24077613773438072,-0.00017686125626470732,-0.004068652193226571,0.010950619850989487
0.8896321070234113,-0.6315998364365847,1.0452102889862582,-0.302399791650635,0.008342043938939893,0.0031955101931712745,0.014887944076876646
0.8963210702341137,-0.6042385385748918,1.0597978082149648,-0.3778312245903461,0.004805022348258277,-0.004047232628757719,0.011070135949412703
0.903010033444816,-0.57666932219066,1.077097907780943,-0.438775041489444,0.006325035759786903,-0.005217576696889865,0.013847265549347058
0.9096989966555183,-0.5489456677325645,1.0973980263677807,-0.4941810029228407,0.009654822609701155,-0.007927030336540837,0.016536277969235496
0.9163879598662207,-0.5212436256574648,1.12197679342989,-0.5372659734798322,0.011390867684513228,-0.009490425082267315,0.019897771270278003
0.9230769230769231,-0.4936951297732383,1.151173022039623,-0.562139112912261,-0.005120624679802109,0.0032572751392579502,0.027171340570301038
