# n,energy,berry,bcd_x,bcd_y,qmd_x,qmd_y
0.00000022222222222222224,-3.1992003913875124,0.000000048855293169802075,0,0,0,0
0.006666666666666667,-3.152142959408792,0.0015180961943907247,0.00000001075834251158618,-0.000000004652032719879811,-0.000000001095442420740333,0.000000005933231751941771
0.013333333333333334,-3.105791795154421,0.0031468402687372158,0.000000016698675037728997,-0.000000008584313472144155,-0.000000003970614037481584,0.000000011294082545024357
0.02,-3.060133699604616,0.004904416374336438,0.0000000226253088784657,-0.00000001299767586628382,-0.000000009992516454487954,0.0000000198966315316069
0.02666666666666667,-3.0151134178015173,0.0068123298048992,0.00000003300549375330422,-0.000000014232963950430194,-0.000000014006846783823123,0.00000004002514207773123
0.03333333333333333,-2.970831925102803,0.008894229244039492,0.0000000399917352077981,-0.0000000214049625852489,-0.000000028309592085117642,0.00000005699177537370132
0.04,-2.9274210162304106,0.011161048047964615,0.00000005296605370341256,-0.000000024853855989148518,-0.000000036929894939645663,0.00000009589684922795431
0.04666666666666667,-2.897924258811748,0.012144123553729626,0.00000006917604603407172,-0.00000003266224577613192,-0.00000005137640939805659,0.0000001247099576481383
0.05333333333333334,-2.8756072689047913,0.01240709656477619,-0.00028923037446833657,-0.00007824073670111481,0.00006611115976427558,-0.0005242064368584281
0.06,-2.8534857490023082,0.012723892868061085,-0.0003858056169366498,-0.00011382624126609337,0.00013776899404925917,-0.0006856475042451315
0.06666666666666667,-2.83154534366227,0.013102008473474414,-0.00025943818187685973,-0.00009847903785396744,0.00016396771967082778,-0.00043463246764264716
0.07333333333333333,-2.809794657081973,0.013546034135043244,-0.0002581498140755019,-0.00011729558500024994,0.00019168581304120416,-0.0004058844190571811
0.08,-2.788243660642361,0.014064488537503368,-0.00027276626058263617,-0.00014044952152635933,0.00021459006671148843,-0.00039522944413874724
0.08666666666666667,-2.766896836591104,0.014667645463985739,-0.0002942845343572248,-0.00016648137830547295,0.00022885859203289745,-0.0003838348020046102
0.09333333333333334,-2.7457585432360156,0.015360110093702127,-0.0003199801792751682,-0.00019523058579254106,0.00022981556489156036,-0.00036380711926459685
0.1,-2.724822549570262,0.016156960027835673,-0.00034861084470522424,-0.00022642549548065665,0.00021167437158848876,-0.0003290797145408329
0.10666666666666667,-2.704069616391502,0.017056924728506898,-0.0003792010116370632,-0.0002601962238710021,0.00016693818839186764,-0.0002737662228038892
0.11333333333333333,-2.6835403586401285,0.018078848813318473,-0.0004109956513901668,-0.0002960119604264007,0.00008648523510582222,-0.00019145984454051467
0.12,-2.6632253276479747,0.019237136916493435,-0.00044321007024767056,-0.0003334707034320738,-0.00004105511207400983,-0.00007510283092488422
0.12666666666666668,-2.643142571803986,0.020549647708530867,-0.0004748704931247993,-0.00037199406279984063,-0.00022916028469342807,0.00008288648541749115
0.13333333333333333,-2.6233041703519233,0.02203108673214537,-0.0005047291101542809,-0.0004111007030407242,-0.0004932747725682939,0.0002911312290995328
0.14,-2.603711565109282,0.023707574116565756,-0.0005316529772377217,-0.0004496237696574835,-0.0008510637263224774,0.0005581373622091591
0.14666666666666667,-2.5843684269046503,0.025606958851392046,-0.00040156040391112636,-0.00047230685001384547,-0.0015380286090336415,0.0005116335970438617
0.15333333333333332,-2.5653080824330865,0.02776766243939096,-0.0002700908065534968,-0.0005040671787920526,-0.0024089137820793908,0.0005844724910005467
0.16,-2.54654169177158,0.030235623984891113,-0.00027580519857675596,-0.0005574008744802593,-0.0032795339764086864,0.0011440691478171396
0.16666666666666666,-2.5280669054295535,0.03307432500995822,-0.0002451333229119767,-0.0006004813864111101,-0.004322929105090253,0.0017371182800232934
0.17333333333333334,-2.5099479991092712,0.03638009033547107,-0.00019322824578215194,-0.0006362933198978725,-0.005535771900356243,0.002409770026336531
0.18,-2.492223961044103,0.0403016111534718,-0.00012139898995897582,-0.0006641760747943791,-0.006934657656811032,0.0031809254857167223
0.18666666666666668,-2.475062193758729,0.04514882009591414,-0.00003092486248204682,-0.0006825843847075192,-0.00849660933269723,0.004042593334449035
0.19333333333333333,-2.458506984574272,0.05119940861814254,0.00007501038166966991,-0.0006928909985309383,-0.010160851595233037,0.004959697136621381
0.2,-2.442769265418626,0.05912971544843468,0.00019465895630409045,-0.0006962989788260726,-0.011861373338556093,0.005890852565574763
0.20666666666666667,-2.427873034919515,0.06909978463787562,0.00032499990279408143,-0.0006942516333157314,-0.013556536638929771,0.006812354196956711
0.21333333333333335,-2.414719273594465,0.08344342414592223,0.0004417821158471821,-0.0006793630075622661,-0.015116941091669505,0.007741888482480931
0.22,-2.4002586199750775,0.09385155261744328,0.0005766223682311768,-0.0006583561908152164,-0.016821913521376117,0.008774441233288924
0.22666666666666666,-2.383845855724468,0.09824281185307535,0.0007383684456049541,-0.0006277119877953054,-0.01870560881405219,0.009962642367916387
0.23333333333333334,-2.3661318604607082,0.09788449090418672,0.0009176886518364059,-0.0005879813606833824,-0.020509706174332627,0.01126404200802732
0.24,-2.3473461694611735,0.09298244651656717,0.001102670130788042,-0.0005432402228658954,-0.021906136272900497,0.012506773291426996
0.24666666666666667,-2.3278269069180824,0.08403624571773037,0.001277010788816824,-0.0005011450060058165,-0.022598211912900814,0.013597006891503808
0.25333333333333335,-2.307689973287404,0.07081599757487668,0.0014247838048478281,-0.0004720762773392311,-0.022179208932187118,0.014404260025239727
0.26,-2.2870692329985407,0.053045860092559044,0.0015284895256235406,-0.00046682233905172684,-0.020248516277565392,0.01479437799204536
0.26666666666666666,-2.266121337146668,0.030370820301059902,0.0015706535583267132,-0.0004953197593236216,-0.01638711100416808,0.014603296296097662
0.2733333333333333,-2.2451117461038,0.0023793696934654614,0.0015328814721471014,-0.0005601731868080705,-0.01022640861068055,0.01369019947823046
0.28,-2.2244092106692968,-0.03127479764848066,0.0013943013854335819,-0.0006419654277650127,-0.0015013683628822315,0.011855013086141607
0.2866666666666667,-2.2047866784442585,-0.07046063323335365,0.001134699552835014,-0.0006719119147199951,0.009653430577109141,0.008790862120089286
0.29333333333333333,-2.187209299075411,-0.1109748004464339,0.0008364242321292206,-0.0005538575095404222,0.02082584068750829,0.004612824500402972
0.3,-2.165768550598755,-0.1404119544622761,0.0005880070381485797,-0.0004343921174039382,0.029657008112408106,0.0019124473121919883
0.30666666666666664,-2.134841831541514,-0.15315037746339416,0.0003767857462991768,-0.00036605483622782493,0.03671556683793915,0.0012280400658541176
0.31333333333333335,-2.108737206491303,-0.16990283063873826,0.00020437352034117216,-0.00028850355612928765,0.04255533171928862,0.00046442410283615605
0.32,-2.0873191271704337,-0.18498530020397486,0.0000889374686360847,-0.00021983574874463128,0.047213934318009035,-0.0003790058329869008
0.32666666666666666,-2.06535392789313,-0.19184389643433133,-0.00001626809954205366,-0.0001436297026826939,0.05199674521506664,-0.0013372344130394716
0.3333333333333333,-2.042993394564388,-0.19100633558684288,0.0002178312463344848,0.00006670205206349108,0.039975845874310356,0.007989325783913868
0.34,-2.0203333596608255,-0.1829212540117842,0.0006270303466005533,0.00031729851975482,0.027122934139936758,0.016691546097821974
0.3466666666666667,-1.9975023624412074,-0.1680375377881778,0.000770895841503463,0.00039909405497704067,0.03215296746636744,0.013776263843304883
0.35333333333333333,-1.974547860998241,-0.14687568407169582,0.0008633515469940872,0.0004175424940702618,0.03650791874001733,0.011920461387745326
0.36,-1.9515519144000095,-0.11998711384679871,0.000918986945028559,0.0004041108251729042,0.042041714084526186,0.010111628343336301
0.36666666666666664,-1.92862684777293,-0.08826872734635872,0.0009461667169405985,0.0003767925030849771,0.049132671199211615,0.008273598752119662
0.37333333333333335,-1.906595957470185,-0.053373338006956435,0.000943374549267853,0.0003530532651138326,0.05836021787785899,0.006554038195948154
0.38,-1.8929688866416663,-0.023324848724173147,0.0006683611488679572,0.00022182602012145181,0.08456978130285822,0.0047714590080910925
0.38666666666666666,-1.8796199117639616,0.0031815868341177073,0.0005910591112471226,0.00034035697881482747,0.09606039960492546,0.0056631715516500545
0.3933333333333333,-1.8665475536032903,0.02616480937921669,0.0007104167802203508,0.0007073176401105203,0.09291036504535316,0.009214950870606822
0.4,-1.8540475486262047,0.037549889014272614,0.0007274743739401239,0.0009961089104630792,0.09559425197526644,0.0165153570456801
0.4066666666666667,-1.8419044368521424,0.03790642370775198,0.00019559344221721855,0.0013365201084397649,0.10043142856148915,0.03404659004656295
0.41333333333333333,-1.8307496004355128,0.005654824680419494,-0.0021207421927436857,0.0018745658062227326,0.11042231796791283,0.0842096143683809
0.42,-1.8193464800471213,-0.03140373451578019,-0.0034968167950642603,0.002758724861411186,0.35851069079679665,0.42709780352675897
0.4266666666666667,-1.807508418611884,-0.07688307203751911,-0.003225752780492086,0.004249201372087624,1.023695535686049,1.2827786177125284
0.43333333333333335,-1.7954168307184604,-0.12281414232950877,-0.004392182359685583,0.004972901413259864,-1.237405048881358,-2.14844886440837
0.44,-1.7831582111551838,-0.16904282920748365,-0.006505680568667209,0.005191423592439153,-5.426439882383059,-8.404034231544191
0.44666666666666666,-1.7716743443948066,-0.2137156831755378,-0.007097644014626688,0.005255437138640615,-3.197238676638518,-4.60643319821449
0.4533333333333333,-1.7603731823908875,-0.2582712242671031,-0.007519083942411281,0.005322917773184378,-0.485939281189094,-0.08444459314215222
0.46,-1.7503039193129435,-0.3034535027146643,-0.00786029146929465,0.005640439271259427,-0.3830787163560748,-0.03012405955565113
0.4666666666666667,-1.7402438130619589,-0.34864793499341895,-0.008201432742615138,0.0059584967581336684,-0.28060235908136816,0.02396782321265723
0.47333333333333333,-1.7321367271895336,-0.3964346058396441,-0.008528443077453244,0.006390872998893295,-0.2600719853150333,0.029291752900873044
0.48,-1.7240296413171086,-0.44422127668586925,-0.00885545341229135,0.006823249239652922,-0.2395416115486984,0.034615682589088856
0.4866666666666667,-1.7169242493815218,-0.5091824900796927,-0.009132707353965977,0.0072234111357457,-0.22853489237447466,0.03798219756334906
0.49333333333333335,-1.7111259233512255,-0.5965540008481628,-0.009345036389257029,0.007581537965011353,-0.22995516686899886,0.03879456906021036
0.5,-1.7053275973209294,-0.683925511616633,-0.009557365424548082,0.007939664794277006,-0.23137544136352306,0.03960694055707167
0.5066666666666667,-1.6995292712906331,-0.7712970223851038,-0.009769694459839136,0.008297791623542662,-0.23279571585804726,0.04041931205393298
0.5133333333333333,-1.6918042591362201,-0.8331726043830292,-0.010006994595750806,0.008687935019869194,-0.2314011692061043,0.039545103249254865
0.52,-1.6837107107843772,-0.8901713294184133,-0.010249071199584868,0.009084202539752586,-0.22946820403918963,0.03834828564846368
0.5266666666666666,-1.6752648917298796,-0.942494733065263,-0.010484841272903299,0.009472170129184741,-0.22698383622777882,0.03692188923910544
0.5333333333333333,-1.6658386673276404,-0.9818062397329285,-0.010703059627624014,0.009837038164385047,-0.2229648585343967,0.03485655155546273
0.54,-1.6563725797897593,-1.0204602505226168,-0.010917340525368203,0.010198776584745016,-0.21889793121180648,0.032768029356777036
0.5466666666666666,-1.6461984541559636,-1.0474359996297398,-0.0110616853908483,0.010504927643578809,-0.21397933570964095,0.030267710152628267
0.5533333333333333,-1.6360219404939083,-1.074361439224893,-0.011205358081971503,0.010810472220915354,-0.20905610452059817,0.027766105542878387
0.56,-1.6253503089727457,-1.090856040004932,-0.011209666623098491,0.010990272967820871,-0.20317174091902285,0.024997993505174718
0.5666666666666667,-1.6146645008546248,-1.106839573008547,-0.011204853825861902,0.011161709671494428,-0.19725277565467017,0.022221316245676605
0.5733333333333334,-1.6037191898555012,-1.1134680004985515,-0.011033074753792406,0.011180042402338991,-0.19070042628518985,0.019287852435878484
0.58,-1.5927536583583277,-1.118401536673029,-0.010823276417588113,0.011159782470102124,-0.18402603793786515,0.01637068007377102
0.5866666666666667,-1.5816713830463773,-1.1135495533556712,-0.010393972413469834,0.010916706329318099,-0.1766470529090184,0.01354756700470857
0.5933333333333334,-1.5706145335991832,-1.1048827625608706,-0.009899581119497734,0.010583094619467423,-0.16898331251368465,0.0107712053874506
0.6,-1.5596274862451223,-1.0857431107886732,-0.009226504494204115,0.010000933950343915,-0.1605378279848869,0.008123191388816942
0.6066666666666667,-1.5487826788768349,-1.0590510891660054,-0.0084462944498867,0.009249166254394871,-0.15181688655553746,0.005585687889517796
0.6133333333333333,-1.5381799946621375,-1.0195033041282615,-0.007483720205180946,0.008208690794714188,-0.1426270580331758,0.0032362971101272194
0.62,-1.5280299064892469,-0.9651696581867989,-0.0064510021410572015,0.0069854560724342705,-0.13334499417992593,0.0011577895072070405
0.6266666666666667,-1.5185464936663724,-0.8890563940367345,-0.005314962016989526,0.005493016398923165,-0.12392706740295675,-0.000521706350568435
0.6333333333333333,-1.5092605469578857,-0.8059273365509521,-0.004157288405372054,0.0038893276886611513,-0.11454542927975325,-0.002047747675687729
0.64,-1.5007326153336609,-0.695866685292569,-0.002916570115740755,0.0018585862244197317,-0.10530309276293977,-0.002984721601256023
0.6466666666666666,-1.4922046837094363,-0.5858060340341877,-0.0016758518261094772,-0.00017215523982165408,-0.09606075624612642,-0.003921695526824301
0.6533333333333333,-1.4813643455754582,-0.4730707841373587,-0.0005975384218188533,-0.0030116561750326088,-0.08572199766794324,-0.004222147025806459
0.66,-1.469804677420659,-0.3595035355905664,0.000430255011583958,-0.006102741321167487,-0.07504217046670135,-0.004324592815827857
0.6666666666666666,-1.4538863716087442,-0.03685595877239006,0.0010186454765366852,-0.006912280324092047,-0.07429760083201507,-0.005938597805571257
0.6733333333333333,-1.4372409559503574,0.3243300666719821,0.0017360673321169004,-0.007807335349395453,-0.0741788104527638,-0.007828770759171313
0.68,-1.4183744302500647,0.666500562339541,0.002658664136209131,-0.009123955821948193,-0.07414233434330406,-0.010534263440931401
0.6866666666666666,-1.3964027079438917,0.9643700584582713,0.00218419093615865,-0.011708645283324057,-0.06930537890645237,-0.02120952257203622
0.6933333333333334,-1.373900866327606,1.2858628328350608,0.007906248362164008,-0.013926887863635275,-0.080239983067385,-0.010996989389453767
0.7,-1.3518519424851172,1.6589564126026417,0.015651817643128584,-0.014905638048952131,-0.08848107609753225,0.0015629197102829165
0.7066666666666667,-1.3285949038720422,2.0934954719428647,0.02148162576599192,-0.01584929379470988,-0.0810021333939955,-0.00030132260766916447
0.7133333333333334,-1.3028903543653443,2.638705250369451,0.029084246778808706,-0.016614447419883802,-0.06861928031308998,-0.0017448049305898029
0.72,-1.2781237567207901,3.1375801590601116,0.034763773144124634,-0.016052335721661495,-0.05053502488805197,-0.0025925229282865803
0.7266666666666667,-1.2545328082523002,3.374849445260819,0.03792607335653533,-0.014712311429511772,-0.024242701788356396,-0.003881340944698725
0.7333333333333333,-1.2299876545259414,3.5375209219328956,0.03799156932913886,-0.013014825857668584,-0.0009247379293556325,-0.0038220411665302392
0.74,-1.2049589707304316,3.6506187819795564,0.034833139570420876,-0.01111653953375918,0.016844734425463324,-0.003352297982300801
0.7466666666666667,-1.1797884935883278,3.727479232166955,0.02951991317513077,-0.009294779151092145,0.028639300895031118,-0.003195381267377886
0.7533333333333333,-1.1545548203973615,3.7743959186908835,0.02341027013770322,-0.007817627875915202,0.035317887858163366,-0.003713251181948702
0.76,-1.1295036486461514,3.796978495532855,0.017621573391227364,-0.0068166196141930665,0.03856272401398942,-0.004741227326838811
0.7666666666666667,-1.1047455194986178,3.7994472193073334,0.012602162511407335,-0.006247273747193995,0.03972693025406575,-0.005887543394300887
0.7733333333333333,-1.0803229474460863,3.78275177817846,0.008439753925788041,-0.0060414489656074955,0.03948385035960619,-0.006858769533653633
0.78,-1.056418035396779,3.746560422788819,0.00507926968206881,-0.006093494489987947,0.03821484463147628,-0.007423536777562776
0.7866666666666666,-1.033173108353023,3.6897375168217623,0.002438690705492634,-0.00629385896013031,0.036190424063226714,-0.007488544616075427
0.7933333333333333,-1.0107541425079969,3.608938501652271,0.00041054600797503775,-0.0065350322191829666,0.03359513340244397,-0.00703315612861461
0.8,-0.9895091508883471,3.497107758583461,-0.001009866401457538,-0.006776447407481341,0.0308010096156368,-0.006170767957417894
0.8066666666666666,-0.9701088936409954,3.3381345580205393,-0.0019442467647940893,-0.006937843438324973,0.028027261285090723,-0.005026615852107945
0.8133333333333334,-0.952885266158743,3.1274823087193497,-0.0025043098709188793,-0.006992065232806532,0.025598252945490906,-0.0038521771815334654
0.82,-0.9334517948190544,2.980261983860119,-0.0028197166158878796,-0.006941824957342301,0.02292884303545198,-0.002330742399734753
0.8266666666666667,-0.9121904552170564,2.8841135444166004,-0.002597633095382622,-0.006727762592150251,0.02026508643089031,-0.0003408881923928672
0.8333333333333334,-0.8897048631796651,2.8162891029730153,-0.00141433524864231,-0.006266002050858072,0.017997207462060072,0.002296986497436504
0.84,-0.8662995500549115,2.7672952097486725,0.0023133221567880773,-0.005103341072170277,0.017103108827520117,0.006586806280664069
0.8466666666666667,-0.8420430903231255,2.7326496172423016,0.027376226026729292,-0.006590370314506046,0.02095592563411771,0.02775855700856173
0.8533333333333334,-0.8170174376544586,2.7090602219059483,-0.011734230531370723,-0.006661651828330372,0.0064717521974778916,0.00007522811416862306
0.86,-0.7913078845785287,2.693119906970013,-0.011493176916947812,-0.006005620395595287,0.004672514616269734,0.0014291764278944615
0.8666666666666667,-0.7649584157382943,2.683761212984331,-0.011180040938782781,-0.005299542171745938,0.0032073949622780907,0.0026127963727119855
0.8733333333333333,-0.7378850129957776,2.6797607015687426,-0.010825972259778703,-0.004568333690903686,0.0020565857799786594,0.003624829690410593
0.88,-0.7101786335546838,2.680820739994218,-0.010468564782011268,-0.0038422907354185524,0.0011950041036248174,0.0044693197153088905
0.8866666666666667,-0.6818946908586877,2.685824582992474,-0.010139029196957897,-0.003143187739832461,0.0005382282310727338,0.0051933712853053865
0.8933333333333333,-0.6529178405082101,2.694391794354074,-0.0098701598765558,-0.002490504029549624,0.00005404521885205981,0.005820726457051954
0.9,-0.6232818323097357,2.706489551162655,-0.009694257008430353,-0.001904605150187428,-0.00029751666029383095,0.006384993095731309
0.9066666666666666,-0.5930594455534974,2.7213544894432538,-0.009626933873140897,-0.00139209341269357,-0.0005643935975271729,0.006927315028595985
0.9133333333333333,-0.5620664788822807,2.7395117866814345,-0.00972402168072351,-0.0009792675109560184,-0.0007658283503637481,0.0074898093804916695
0.92,-0.5304929534197869,2.7603563461864393,-0.009988339935073847,-0.0006647711023127974,-0.0009338920837629366,0.008109619995982875
0.9266666666666666,-0.4981452691794309,2.7843069670297638,-0.01050815401881263,-0.00048268518136021873,-0.0010852750601398013,0.008860245854267073
