# n,energy,berry,bcd_x,bcd_y,qmd_x,qmd_y
0.00000016666666666666665,-3.036303799109805,0.0000000035070459185907467,0,0,0,0
0.006688963210702341,-2.988252018401897,0.00014806925076672942,-0.0000000000000000002437392086345929,0.00000000000000000017061717654593088,-0.00000000000000000007431593972366064,-0.00000000000000000018095140195112498
0.013377926421404682,-2.955191659838115,0.00021653630029534954,-0.0000000000000000009723990542970173,0.0000000000000000006751823546023815,-0.0000000000000000004931657465619991,0.0000000000000000000967838916108525
0.020066889632107024,-2.9314704660507105,0.0002331072416547906,-0.0000000000000000009631661578654943,-0.0000000000000000008138133834650204,-0.0000000000000000013620347396760064,-0.0000000000000000002277480545917096
0.026755852842809364,-2.9079299222069928,0.00025911017212927113,0.0000000000000000015430771478294804,0.0000000000000000013550445512009338,0.00000000000000000026016077450163594,0.0000000000000000005380981695310499
0.033444816053511704,-2.8845972807559113,0.0002953223752727853,0.000000000000000001939975879314498,0.0000000000000000015977525426307233,-0.0000000000000000010330294713682091,-0.00000000000000000037186835077230517
0.04013377926421405,-2.8614462861134435,0.00034244628654813444,0.0000000000000000028465888369097393,0.000000000000000003853548756892083,-0.0000000000000000016467049484444675,0.0000000000000000004503502603519645
0.046822742474916385,-2.838516991588001,0.0004011949774642867,0.00000000000000000032021864885928797,0.000000000000000004653521922684895,-0.00000000000000000005689897820959544,0.0000000000000000009144243963191903
0.05351170568561873,-2.8157877493589436,0.0004737151080392074,0.0000000000000000005694153886561845,0.000000000000000003891550733449317,0.0000000000000000046504763595890366,0.00000000000000000015676503369756415
0.06020066889632107,-2.793242906881902,0.0005594082474211672,-0.0000000000000000007778873678024401,0.00000000000000000814457889911234,0.0000000000000000009159220937494151,-0.0000000000000000021841843437436762
0.06688963210702341,-2.7709185692406106,0.0006592228207019546,0.0000000000000000041692736919797834,0.00000000000000000291678494942625,0.000000000000000004160220817575455,-0.000000000000000004243565699801803
0.07357859531772576,-2.748758453275358,0.0007737289588122302,0.00000000000000000071579490915927,-0.0000000000000000020129534329541497,0.000000000000000003873060032196052,-0.000000000000000004053360596601881
0.0802675585284281,-2.7267733456280063,0.0009040851399089163,-0.000000000000000003726877356037668,0.000000000000000006097777597246154,0.000000000000000005458630404626152,-0.000000000000000006275361876294655
0.08695652173913043,-2.7050090446203225,0.0010503794772927743,-0.000051662887432306217,0.00002951668234521819,0.000027815084294424675,-0.00004715334345301279
0.09364548494983277,-2.6834230353840294,0.001214235653204395,-0.000052062591017571496,0.0000294642755443785,0.000037029842693554044,-0.000042332579915984144
0.10033444816053512,-2.662012636996728,0.0013972221244119589,-0.00004535486591450865,0.000025439925395940288,0.00004158883739377001,-0.00003093064006946697
0.10702341137123746,-2.6408352446884233,0.0015982221468288696,0.000043345561140227775,-0.000025565141905382637,0.00011042027198405187,-0.00010118161440052158
0.11371237458193979,-2.619828950472806,0.0018231777784943862,0.000004557837146017266,-0.0000028750723211011354,0.00007802965309314703,-0.00007757172391856627
0.12040133779264214,-2.598994166454414,0.002067108757547698,-0.000004536708357541114,0.00000240170223047599,0.00007142995937318134,-0.0000767263076779942
0.12709030100334448,-2.5783799243908487,0.0023354428957309036,-0.000009580136874310408,0.000005018466413511505,0.00006807307442285676,-0.00007970459502014796
0.13377926421404682,-2.5579289238471627,0.002626570313696663,-0.000013541302770379685,0.000006498616864630511,0.00006447127408659615,-0.00008425843083063654
0.14046822742474915,-2.5376667195610407,0.0029454983861714984,-0.000017289231915493208,0.000007177392683037215,0.00005872105133475693,-0.00008952800919429456
0.14715719063545152,-2.5175974956570557,0.0032919024019203535,-0.000021258207420447787,0.00000709226194842053,0.00004898507875606989,-0.00009486389433257603
0.15384615384615385,-2.497698258524372,0.0036626845451604535,-0.000025675998976779313,0.000006160879722522352,0.00003297027068422998,-0.00009966837800774081
0.1605351170568562,-2.4780325688500695,0.004068240934609508,-0.00003071057590821403,0.00000421206408913259,0.000007752249934493692,-0.0001031614613998626
0.16722408026755853,-2.4585184154883417,0.004508521463745938,-0.000036548322772823615,0.000001045971623244548,-0.000030821914716503736,-0.00010431464038719861
0.17391304347826086,-2.4391983828141806,0.004986817340002729,-0.00004330157738831269,-0.000003566181461919026,-0.00008817993704722899,-0.00010176571461706288
0.1806020066889632,-2.4200889445495837,0.005505683185597785,-0.00005109794476078383,-0.000009907787595050876,-0.00017161827924222218,-0.00009369290601398752
0.18729096989966554,-2.401156650518277,0.006071844814594168,-0.000060047219979861864,-0.00001831121702056342,-0.00029123094227112567,-0.00007765519009585906
0.1939799331103679,-2.3824351896799216,0.006696563851143065,-0.00007020615340873049,-0.000029122657242042345,-0.0004600632300454966,-0.00005051278468330168
0.20066889632107024,-2.3638938628581165,0.007386642146978107,-0.00008162450319213358,-0.00004278148335825838,-0.0006966149812454943,-0.000007820097283009735
0.20735785953177258,-2.3455655210828783,0.008167510190547162,-0.00009432263022691346,-0.000059995302133087995,-0.0010338842972288616,0.00005821709381534398
0.2140468227424749,-2.327455036930111,0.009076335258453659,-0.00010802524568683514,-0.00008103993884977807,-0.001501787045947933,0.00015477229048505036
0.22073578595317725,-2.3095582158160513,0.010155394464783772,-0.00012236370673800935,-0.00010635030096151566,-0.002145638724541448,0.0002927520217655501
0.22742474916387959,-2.2919089233096073,0.01149855357474523,-0.00013670370017837536,-0.00013626294146118798,-0.0030220219689723114,0.00048616958336529677
0.23411371237458195,-2.274502668957357,0.013279796648515758,-0.0001501529065564463,-0.00017100989692015633,-0.0042028361361017095,0.0007533330469930542
0.2408026755852843,-2.2573585158807052,0.015892589273961352,-0.00016143050586582262,-0.00021053622155834702,-0.0057726481281489585,0.001117241800409804
0.24749163879598662,-2.2405406937467656,0.02023586178981896,-0.00016888769571435497,-0.0002543233806043247,-0.007819107431726029,0.0016043137002752401
0.25418060200668896,-2.2241848466411227,0.028486655775821795,-0.00017076999448120589,-0.0003012217658238085,-0.010407041695619165,0.0022380308775819973
0.2608695652173913,-2.2090635999896486,0.053147339459005266,-0.00016309095550911637,-0.00034792108420521984,-0.013646654650968025,0.003066878872140003
0.26755852842809363,-2.192935287844146,0.07031304896546345,-0.00014141593735178003,-0.00039779265661461506,-0.0180919124771935,0.004271096732705328
0.27424749163879597,-2.176113361487245,0.07211487245607232,-0.00009945847071850355,-0.00044568486419749027,-0.023964609486531705,0.005983102904656264
0.2809364548494983,-2.1585713784114042,0.05641343249294704,-0.000027111686432064935,-0.0004837076032917971,-0.03165683698044797,0.008460449499113072
0.28762541806020064,-2.140429443342722,0.02604167943177977,0.00008810950945443713,-0.0004972547852978199,-0.04144251586857114,0.012065181721630057
0.29431438127090304,-2.1222181594692997,-0.010371981356639864,0.0002547339969356252,-0.00046523203539598155,-0.05300453340544794,0.017146933059491533
0.3010033444816054,-2.103974537648678,-0.03328411322632088,0.00048046586843220713,-0.00036160947865236507,-0.06571617420128738,0.024193132394621057
0.3076923076923077,-2.087270723963487,-0.030825495551780383,0.0007397999872432429,-0.00018140067842798135,-0.07737838040858296,0.03270936548505812
0.31438127090301005,-2.071978802042641,-0.022472917538319488,0.003483645722750867,-0.001273770439571627,-0.1033130951753803,0.04088391018588797
0.3210702341137124,-2.056928606374731,-0.016486834995195543,0.0034771978302932226,-0.0006422714037479394,-0.12564120060007736,0.047103471403552664
0.3277591973244147,-2.042077399971219,-0.012393148641004846,0.002484784874651316,0.0006868258289115148,-0.14222300734646842,0.05863779276703823
0.33444816053511706,-2.0274135010353955,-0.00956592527643795,0.0021419283129486483,0.0017598601759981826,-0.15180182806908207,0.08148923155283144
0.3411371237458194,-2.0131266088854765,-0.007953077063341986,0.002710575361071068,0.0022216007179056705,-0.16167177761917287,0.09842842349507655
0.34782608695652173,-1.9990388833508712,-0.006986236027436468,0.0031379475414140766,0.0026525611397914635,-0.16625414484707504,0.11556473853192974
0.35451505016722407,-1.9851548750685437,-0.006585124536995736,0.0034410752215418157,0.003034883761693072,-0.1656251304089796,0.13240117311369204
0.3612040133779264,-1.971590090549331,-0.006851313708628395,0.0035962359410872296,0.003301426499955745,-0.15728430045739764,0.14761102529685682
0.36789297658862874,-1.9583457042609602,-0.007916573906720131,0.0036340423738046154,0.003451460907112679,-0.14148895783760362,0.1606065040346754
0.3745819397993311,-1.9453270457390235,-0.009616885066636787,0.0036060699763635776,0.00352856903985579,-0.12076984625244253,0.1724233395621634
0.38127090301003347,-1.9326772146571936,-0.012463913084741346,0.0034961898932211895,0.0035003742196196316,-0.09250200969678657,0.1828914849676151
0.3879598662207358,-1.9204205835312673,-0.01667454966663368,0.0033314731683724863,0.003374020894684677,-0.05621015571644897,0.19436824183192425
0.39464882943143814,-1.9083776483116233,-0.02167478934824883,0.003137285540814074,0.0031930986314138194,-0.015550667773077464,0.2065229618630655
0.4013377926421405,-1.8969950856653397,-0.03017520194746795,0.002859273400399204,0.0028168436568724218,0.03875336872671044,0.223609377447282
0.4080267558528428,-1.8858822052776218,-0.040816479918698544,0.0025370417351287373,0.0023389250269972963,0.09928896414741357,0.24398915782777725
0.41471571906354515,-1.8753963193844219,-0.05643513685766473,0.0021120024221392935,0.00162464471531974,0.17431254686272485,0.2720258067271357
0.4214046822742475,-1.8660158429395066,-0.09023918926596047,0.001641845316872356,0.0008056564888274541,0.25764653424614725,0.3065872616068638
0.4280936454849498,-1.858197666545711,-0.14974507036356344,0.0011079222203784673,-0.00016131779018271897,0.3527258035773196,0.3503703716230588
0.43478260869565216,-1.8503794901519153,-0.20925095146116643,0.000573999123884579,-0.0011282920691928922,0.4478050729084919,0.39415348163925384
0.4414715719063545,-1.8436188505419129,-0.2854757614203852,0.0005473638545906686,-0.0015556132524716865,0.5914572412314796,0.4641556784322225
0.44816053511705684,-1.8369965724825326,-0.3638879722884778,0.0005870989768130128,-0.001912329573330766,0.7414643862566686,0.5375882178458257
0.45484949832775917,-1.8303742944231525,-0.4423001831565704,0.0006268340990353572,-0.0022690458941898453,0.8914715312818577,0.6110207572594287
0.46153846153846156,-1.8220658356517976,-0.4550891241437519,0.0006783957698141886,-0.0025742043737428015,0.959893360047135,0.6385962799341514
0.4682274247491639,-1.8135644761760756,-0.46037069958404114,0.0007313104091868237,-0.0028734645863822627,1.0189817497208595,0.6609257155398586
0.47491638795986624,-1.8052790287774305,-0.43612931833288016,0.0008006019528711523,-0.003161280503013099,1.0891079378589437,0.6900035728140745
0.4816053511705686,-1.7971560642195892,-0.38967068116395265,0.0008822177999115548,-0.0034404841097090046,1.1675405295803252,0.7241598987802043
0.4882943143812709,-1.789253738096392,-0.3333738005438488,0.0009725608321237327,-0.0037075805621972777,1.2481001678997392,0.7604866764221148
0.49498327759197325,-1.7827594730854512,-0.2142916303214896,0.0011185986487902352,-0.0038974120855386207,1.342234103025052,0.8106647515754022
0.5016722408026756,-1.7762652080745105,-0.09520946009913045,0.0012646364654567376,-0.004087243608879964,1.436368038150365,0.8608428267286895
0.5083612040133779,-1.7695098629385344,0.017805927376876758,0.0014961426379277761,-0.004233633545894222,1.530071265220522,0.9233844395974781
0.5150501672240803,-1.7601027596182073,0.0692017610928027,0.002595740213284502,-0.003938792722549597,1.619399844430489,1.111500959097498
0.5217391304347826,-1.7506956562978804,0.12059759480872866,0.0036953377886412286,-0.0036439518992049725,1.7087284236404559,1.2996174785975179
0.5284280936454849,-1.74014552147363,0.11870899936839585,0.0007935588992129443,0.002064918298168211,2.370883679312377,-10.924998152146703
0.5351170568561873,-1.729480905414748,0.11651683018109377,-0.0013348947834895867,0.007388403705920495,2.62973381023241,-20.5369462391167
0.5418060200668896,-1.718049663615932,0.11743508720758766,0.0029150175266573477,0.009183221713790962,-0.2829146042468347,-8.712862886672662
0.5484949832775919,-1.7062359410247938,0.12773426285443565,0.0062599072238111435,0.010539198213118006,-2.0104938635288097,-1.3820407276778734
0.5551839464882943,-1.6938094645561017,0.15306215203418572,0.008154904203426466,0.011192128072221998,-1.839531458512038,-1.249653821957453
0.5618729096989966,-1.6807421757510819,0.18117561911728258,0.00983100028157504,0.011325860578301294,-1.692643303708518,-1.170669606827391
0.568561872909699,-1.667281055920147,0.21050619468487272,0.011485104280132373,0.0111881686798235,-1.5618762050638337,-1.1131425610126948
0.5752508361204013,-1.6532873057138646,0.2409861295343245,0.013222425232289054,0.010731235320747871,-1.454242190079526,-1.0732294491196122
0.5819397993311036,-1.6386246066171826,0.2732261261741629,0.015144053276275483,0.009782536303036788,-1.3553479054715933,-1.040908093042123
0.5886287625418061,-1.6237573995009627,0.2910622208060127,0.016495249751577023,0.008244036915489842,-1.1081716752444242,-0.9368269876579763
0.5953177257525084,-1.6086858942715234,0.2965358933590438,0.016939777101368913,0.005740849744090614,-0.7682534835886858,-0.7840102287699287
0.6020066889632107,-1.5932425434456818,0.30177803697480804,0.015954820630222598,0.0014009727199374407,-0.5435581480164924,-0.6747183659722962
0.6086956521739131,-1.5773345353247517,0.3067211444936074,0.014341048882919259,-0.0028747918033646836,-0.3647008101120722,-0.5820113345822947
0.6153846153846154,-1.5610724646050358,0.3115587654374985,0.012068598504075406,-0.006979712509490525,-0.20955981643419624,-0.4929355533276158
0.6220735785953178,-1.5444556128681146,0.3152180345080659,0.009112764274542938,-0.010791320671342699,-0.07824883948651463,-0.4065456077742762
0.6287625418060201,-1.527477650259842,0.3174104837290642,0.005588755532905913,-0.014127332324531177,0.02693737023209878,-0.3242853834070374
0.6354515050167224,-1.5101257437853206,0.31861369639376896,0.0017730402083692633,-0.016751765195690216,0.10297085852179534,-0.24957191197878928
0.6421404682274248,-1.4923984055026158,0.31803749029521505,-0.001988420216969745,-0.018450066855284938,0.14901806756059816,-0.18602201909737925
0.6488294314381271,-1.47430336882313,0.31599110032118843,-0.0053942998914460255,-0.019073030242942747,0.16754780696743002,-0.13630684422121217
0.6555183946488294,-1.4558319309511474,0.3108668494783311,-0.00858501506063969,-0.018518653185528818,0.1668206492267716,-0.1004424168409768
0.6622073578595318,-1.4370047292281853,0.30220129114529587,-0.014145311779794946,-0.015677352337329174,0.15670202862761026,-0.07934336194885543
0.6688963210702341,-1.4178096181008517,0.2874156175251721,0.0006325866087304455,-0.023979783468213934,0.13506320283365422,-0.05128623730723893
0.6755852842809364,-1.3982627785732549,0.26302330430098564,-0.005844732870120594,-0.018799289481981556,0.0947267662738343,-0.029571827011595393
0.6822742474916388,-1.3783586704340007,0.22280311990599427,-0.007494721308539303,-0.014863714123447955,0.07452620080317515,-0.019158878721527984
0.6889632107023411,-1.3581082218069482,0.15370439393328125,-0.0066410727373495855,-0.012282158230225894,0.060390872950467356,-0.013009659893586833
0.6956521739130435,-1.3375192863378367,0.02144502439533935,-0.005767911083352116,-0.010018736114547268,0.047653545799454945,-0.008738893476358929
0.7023411371237458,-1.3157149504532306,-0.0778044444400348,-0.004884673389904777,-0.007989019806215927,0.03638830156094584,-0.005640122589353485
0.7090301003344481,-1.2920287258729166,0.38746753533489264,-0.004019154254154051,-0.006200058586368238,0.026955725334917174,-0.00344107944253269
0.7157190635451505,-1.2693023650696607,1.0215766170405218,-0.003281317564169798,-0.004791698634582044,0.019994793049506337,-0.001995679803181927
0.7224080267558528,-1.2462209766806878,1.3858664320115053,-0.0026251979913994453,-0.0036177299808635615,0.014627139269509194,-0.0009705387274727347
0.7290969899665551,-1.2227097131140348,1.253857958572768,-0.0020455878633521816,-0.0026375004265096038,0.010523759600112089,-0.00023498366250967637
0.7357859531772575,-1.2010799632091862,0.8516417850783085,-0.0015840333394640117,-0.0018944725506188265,0.007694992828244056,0.0002507034580342799
0.7424749163879598,-1.1792152139274852,0.6266766239890051,-0.0011778111431943992,-0.0012678512777973645,0.005529482184681099,0.000614192984673072
0.7491638795986622,-1.1564563927626152,0.5631689627781811,-0.000810691344513641,-0.0007245793168260468,0.0038391386051884347,0.0008973129134923925
0.7558528428093646,-1.1330723919091137,0.5421780133200735,-0.00048666753602214565,-0.00026526445082626074,0.0025713629183180997,0.0011157564983811873
0.7625418060200669,-1.1092325163383479,0.534370767480227,-0.00019794770017710588,0.00012817886270909327,0.001600755688023266,0.0012935008899898851
0.7692307692307693,-1.0849692608720678,0.5317527119217522,0.000060088465053972706,0.00046592310873603263,0.0008579504104370571,0.0014439778514754875
0.7759197324414716,-1.060364192281885,0.5326450105952554,0.0002912791563844,0.0007558370401103637,0.0002892602854907443,0.0015771553818130588
0.782608695652174,-1.0353072718259648,0.535165163010985,0.000498231974973444,0.0010022326335295832,-0.00014053767429884193,0.0017012892168314162
0.7892976588628763,-1.009878834680534,0.5386637981670599,0.0006851332907635444,0.0012121743520671598,-0.00047236767558602203,0.001823568602547791
0.7959866220735786,-0.9841181461845442,0.5428281517339021,0.0008561516024004042,0.0013921474151143498,-0.0007386093723321784,0.001949322364921139
0.802675585284281,-0.9579706434740726,0.5472205278079191,0.0010131543952335506,0.001543835564859772,-0.0009569831565342391,0.0020830719443555145
0.8093645484949833,-0.9314219927979792,0.5519903294939593,0.0011575964909027394,0.0016669254916257122,-0.0011403032141089244,0.0022307620327432867
0.8160535117056856,-0.9045322138998335,0.5566853899710381,0.0012927438122144286,0.0017652814202785887,-0.0013053920150531261,0.0023942385330043324
0.822742474916388,-0.8772574374072823,0.5617072839304712,0.0014195552877709994,0.0018362425126474114,-0.0014606078901469744,0.0025790174739219376
0.8294314381270903,-0.8496366771554887,0.5665907778403086,0.0015396944130590113,0.0018768762409976003,-0.0016138419925860307,0.002791001638118965
0.8361204013377926,-0.8216840978228526,0.5714011502897923,0.001656243099755833,0.0018878475519353629,-0.0017716401298281332,0.0030325842259740945
0.842809364548495,-0.7932473995678635,0.5762790384653583,0.001772628014480376,0.0018563728819837072,-0.0019428066420470807,0.003319477893158052
0.8494983277591973,-0.7645310825142134,0.5811430867690681,0.0018936575452373594,0.0017823264292192835,-0.002130295507907876,0.0036537522004162636
0.8561872909698997,-0.7353889239709221,0.5858860502566702,0.002031837218732258,0.0016480903548769935,-0.0023446239349121834,0.004060997501954533
0.862876254180602,-0.705894991574747,0.5906351071686486,0.0022053008627533287,0.0014395912728961601,-0.0025915776489169313,0.0045615458688121075
0.8695652173913043,-0.6760203505355997,0.5952107966520217,0.0024673524810493713,0.001117312735034098,-0.002888412093471243,0.005218242843150258
