# n,energy,berry,bcd_x,bcd_y,qmd_x,qmd_y
0.0000015,-3.014958325151783,-0.0000000000000020069274290335895,0,0,0,0
0.006688963210702341,-2.990942736053876,-0.00000014871600767268966,0.0000000000000000000019078749616130235,0.000000000000000000000011647090086544028,-0.00000000000000000000019646356359343112,-0.000000000000000000003473067418800928
0.013377926421404682,-2.967098012320153,-0.0000009933847251106742,-0.00000000000000000003911942571534988,-0.00000000000000000002732888779388346,-0.00000000000000000001829185654214298,-0.000000000000000000003726149630271573
0.020066889632107024,-2.9434414841816694,-0.000003240485330401453,-0.0000000000000000000013174224464185275,-0.000000000000000000053312831486460007,0.000000000000000000016556159696727777,-0.000000000000000000017234723576860967
0.026755852842809364,-2.920020936131408,-0.00000759461892579774,0.00000000000000000030227955056126252,-0.00000000000000000016132900116319949,-0.0000000000000000000553754734634999,0.00000000000000000004894282364834595
0.033444816053511704,-2.8968534384435465,-0.000015529587398534103,0.0000000000000000001202771574943031,0.0000000000000000001299903416407951,0.00000000000000000009279660920186869,-0.0000000000000000002696720566630923
0.04013377926421405,-2.87380881753588,-0.00002800127802982697,-0.00000000000000000008335798285967405,-0.000000000000000000619194645769878,-0.00000000000000000008361264843616966,-0.0000000000000000001048577400754115
0.046822742474916385,-2.8509770685414533,-0.00004689746521960014,-0.0000000000000000011517702052888863,0.00000000000000000013390166447318182,-0.00000000000000000023912794063285504,0.0000000000000000006183317589342378
0.05351170568561873,-2.8283725282201013,-0.00007324930292483897,-0.0000000000000000018347450060712295,-0.00000000000000000041924631552090227,0.00000000000000000004124495590024854,0.0000000000000000004432822425693106
0.06020066889632107,-2.8059411692612453,-0.00010836201468949385,-0.0000000000000000010976632413967016,-0.0000000000000000002604844443408597,0.00000000000000000087937226334733,0.0000000000000000009633609746606992
0.06688963210702341,-2.7837968789817915,-0.00015529167571708385,-0.0000000000000000015331756885801402,-0.00000000000000000016769798565400726,0.0000000000000000008436530464600503,-0.0000000000000000006853052895468439
0.07357859531772576,-2.761757968089363,-0.00021566832987552452,0.000000000000000002443065587466612,-0.0000000000000000015773632033695448,-0.000000000000000000035769957305621515,0.0000000000000000009619391489751752
0.0802675585284281,-2.739974991217444,-0.00029066111453462414,0.0000000000000000002058443874047185,0.000000000000000004341234493717675,0.0000000000000000034691824896049827,-0.0000000000000000034270752194913085
0.08695652173913043,-2.718367481648997,-0.0003875386639254622,0.0000000000000000030916531423271682,0.000000000000000004789311954551756,-0.000000000000000005906996671238073,-0.000000000000000002082434781869595
0.09364548494983277,-2.6969252781825226,-0.000507053718657464,0.0000000000000000046551667205039686,0.00000000000000000009278610255530876,-0.0000000000000000023369315512345312,-0.000000000000000003500647251436331
0.10033444816053512,-2.675656401324489,-0.0006532516629692487,-0.00000000000000000400810855692192,0.000000000000000005276728200167915,-0.00000000000000000013179496021173625,-0.000000000000000009315991721071544
0.10702341137123746,-2.654599866283172,-0.0008280470956873824,-0.000000000000000004851794114759107,-0.00000000000000000008285268657765409,-0.00000000000000000018944288236633402,-0.000000000000000005973897579309026
0.11371237458193979,-2.6337884739488056,-0.0010412530813523019,-0.0000000000000000035086230856832915,-0.00000000000000000009617931512775625,0.0000000000000000008898754750814045,0.0000000000000000003627848669524998
0.12040133779264214,-2.6131720087431103,-0.0012961306651039185,-0.00000000000000001503751051322735,0.000000000000000005617604759180357,0.0000000000000000034484743763653948,0.000000000000000007152889249097737
0.12709030100334448,-2.5927828133039172,-0.0015952530003527118,-0.000000000000000009943780084737124,-0.0000000000000000031130961717352437,-0.000000000000000001523520825634801,0.000000000000000006519915461522897
0.13377926421404682,-2.572484583139889,-0.0019538982486610235,0.0000000000000000051502176647131776,-0.000000000000000003943955688098958,-0.0000000000000000025782205397936056,-0.0000000000000000023152305631079452
0.14046822742474915,-2.5524473233580554,-0.0023741371002585538,0.00000000000000000688845283852269,0.00000000000000000019772473981923076,0.000000000000000009866968863958904,-0.0000000000000000141338598845344
0.14715719063545152,-2.532613791833476,-0.0028612086474136466,0.000000000000000024573692008280554,-0.000000000000000004485992373372652,0.000000000000000007652599578418481,0.000000000000000005163708661987705
0.15384615384615385,-2.512978301564374,-0.0034287753426897574,0.00000000000000001947526631306943,0.000000000000000010387031450703729,0.000000000000000010893707296125636,0.00000000000000003761084463427178
0.1605351170568562,-2.493487895251732,-0.004089706631204615,-0.000000000000000004214413990896005,0.00000000000000003303162682341032,0.000000000000000013639719218343263,0.00000000000000003103769219315694
0.16722408026755853,-2.474231894141635,-0.004853576586189462,-0.00000000000000006873958457952206,0.00000000000000004394550208956509,-0.000000000000000014649189923590014,0.00000000000000000748525202074366
0.17391304347826086,-2.4551840607151054,-0.0057466501956784065,-0.00000000000000009228113178245529,0.000000000000000020018104235439424,0.000000000000000011061897885590611,-0.000000000000000013641565016492134
0.1806020066889632,-2.436294268375622,-0.006787639746798464,-0.000000000000000047461638317742594,-0.00000000000000003354241555393105,0.000000000000000013081026238160598,-0.000000000000000003475212444315537
0.18729096989966554,-2.4176164985914976,-0.007974942895286564,0.0000000000000000065801608486064716,-0.000000000000000034171312305540166,-0.000000000000000013490452406162644,-0.000000000000000007912693467595405
0.1939799331103679,-2.3991801088704796,-0.00932682606905281,0.000000000000000010143678504890403,-0.000000000000000021401558591232917,0.00000000000000005143395831313343,-0.0000000000000000396548086850159
0.20066889632107024,-2.3809782743642183,-0.010877000335315431,-0.00000000000000008412091960428016,-0.000000000000000047614148156055005,0.0000000000000000711351931128036,0.0000000000000000009852021827555343
0.20735785953177258,-2.3628997981998494,-0.012665988055961473,-0.00000000000000007897644560079782,-0.00000000000000002454920742971815,-0.00000000000000002579749905160031,0.00000000000000004559509588953472
0.2140468227424749,-2.3451811602426016,-0.014731886524392066,0.00000000000000004669902852098999,-0.000000000000000045018380686887615,-0.000000000000000048126106863247215,0.000000000000000032042976075322393
0.22073578595317725,-2.3275827741650246,-0.017082884386340664,-0.000000000000000004176426130844881,0.0000000000000002965657179069284,0.000000000000000038555540736758325,-0.00000000000000001503784176555755
0.22742474916387959,-2.3102513766150587,-0.019826664968726225,0.000000000000000051639242295063773,-0.000000000000000034858836595546617,0.000000000000000017995400439050406,-0.00000000000000009118925495812313
0.23411371237458195,-2.293188314247069,-0.022984933043643553,-0.0007054202685884245,-0.00000000000000008220986203785255,0.00000000000000008135374197586926,-0.0003085358036850958
0.2408026755852843,-2.2762907981694953,-0.026615934752805673,-0.0007803200914994952,0.000000000000000015656069296006683,0.00000000000000021380868387845215,-0.0003553576065646921
0.24749163879598662,-2.259602805836401,-0.030789115957866632,-0.0006388878852510537,0.000000000000000046574325533707305,0.00000000000000012837647013430872,-0.00030922503993453007
0.25418060200668896,-2.2432113042473736,-0.03555431508138874,-0.0005871809193084732,-0.000000000000000016130229280015195,0.000000000000000007901414787947318,-0.00029790535064054736
0.2608695652173913,-2.2271624288490144,-0.04096619077167805,-0.0005635154660645827,-0.0000000000000000699890774900554,0.0000000000000001763429159505546,-0.00029692381650846787
0.26755852842809363,-2.2114234948852936,-0.04731498103788672,-0.0005539497628022615,-0.000000000000000036910062811088154,0.0000000000000002502168481086881,-0.00030084029675439203
0.27424749163879597,-2.196001180691257,-0.05493656220425979,-0.0005510139705599887,-0.00000000000000030459081265399397,0.000000000000000054788267128067925,-0.00030663317105940514
0.2809364548494983,-2.180913061506571,-0.06370250887605865,-0.0005522998665886539,-0.00000000000000023676111433346916,0.000000000000000026905939015667368,-0.0003136482797482917
0.28762541806020064,-2.166160703585828,-0.07380984649406098,-0.0005564105759235299,0.000000000000000031320128036991015,0.000000000000000014611792130601105,-0.00032132901413929843
0.29431438127090304,-2.1517667565836742,-0.08564365735460613,-0.0005621392920996085,0.00000000000000020902456757018358,-0.000000000000000269655720420414,-0.0003291024764066003
0.3010033444816054,-2.1379666711167413,-0.10082654639581326,-0.0005699153883910847,0.00000000000000005196808465504694,-0.00000000000000013240844710737601,-0.00033713925023653513
0.3076923076923077,-2.1256674190883507,-0.12919542943000845,-0.000520192192742708,-0.00000000000000008687663126801662,0.0000000000000000172763819267825,-0.00038445018931948543
0.31438127090301005,-2.114821158767856,-0.1704739395235072,-0.00041289188564557096,-0.00000000000000018174241671057758,0.00000000000000014690483488123174,-0.000470960413773766
0.3210702341137124,-2.106815209997263,-0.23574208846926464,-0.00023981791246787524,-0.00000000000000022823934280648307,0.00000000000000004031274819709462,-0.0006026953817162127
0.3277591973244147,-2.1000886016332276,-0.3118157120199051,-0.00003711799607025436,-0.00000000000000025294984333107436,-0.0000000000000001726783992622392,-0.0007548005945082485
0.33444816053511706,-2.0933619932691925,-0.3878893355705455,0.00016558192032736666,-0.00000000000000027766034385566565,-0.00000000000000038566954672157316,-0.0009069058073002845
0.3411371237458194,-2.085355740061339,-0.45494169103149834,0.00043644926384582615,-0.00000000000000027852762454629626,-0.0000000000000005064459236962645,-0.0011101167887369995
0.34782608695652173,-2.0769661646295283,-0.5192916931295137,0.000727736405788563,-0.0000000000000002722525828205017,-0.0000000000000005995990338913631,-0.0013286366873225485
0.35451505016722407,-2.0678067401235185,-0.5784927565103047,0.0010644917587165623,0.000000000000000014064141785547482,-0.0000000000000005520158140996087,-0.0015809028036603036
0.3612040133779264,-2.0576198167101545,-0.6308216561342072,0.0014619324312383289,0.0000000000000006741457156545919,-0.0000000000000003165952244479682,-0.001878209179225264
0.36789297658862874,-2.0469137196334777,-0.6797101116562287,0.0019018748109174539,0.0000000000000010615758156889698,-0.00000000000000011039876523703507,-0.0022073703509374325
0.3745819397993311,-2.0356889128273643,-0.7251611974591475,0.002384280918204597,0.0000000000000011765980833985293,0.00000000000000006659967823253347,-0.0025683578533331163
0.38127090301003347,-2.0239156729959022,-0.7668481744362994,0.0029214731585234088,0.0000000000000006706142406730171,0.0000000000000000010329960120558649,-0.0029696014466446164
0.3879598662207358,-2.01189994005725,-0.8068568923638688,0.00348377258998807,0.00000000000000014476210148906072,-0.0000000000000001244344763244034,-0.0033893485569034066
0.39464882943143814,-1.9993856998074848,-0.8433285252563314,0.0041031995983226415,0.000000000000001168153238763293,-0.00000000000000007744825993403948,-0.0038515294694595075
0.4013377926421405,-1.9866323861344777,-0.8779701125624592,0.004751876395317356,0.0000000000000013182514720916529,-0.000000000000000009891276658638624,-0.004334925180828055
0.4080267558528428,-1.9736656956577994,-0.9109714773399203,0.005426647471253768,0.0000000000000007071958422216761,0.00000000000000008049265523713596,-0.00483722779177588
0.41471571906354515,-1.9603444534512435,-0.9409574791794114,0.006144287602831043,-0.0000000000000003982987187710421,0.0000000000000003971164009345232,-0.005369781269303779
0.4214046822742475,-1.9467443243395584,-0.9695837766844306,0.006885456235811995,-0.0000000000000003639144359447851,0.0000000000000009695155744070166,-0.005918379772092965
0.4280936454849498,-1.932898855430449,-0.9967293605257563,0.007647502487718054,0.0000000000000005216844285919305,0.0000000000000015736905478103839,-0.006480808975865501
0.43478260869565216,-1.9189496330211313,-1.021425168965688,0.00841952711291233,0.0000000000000007960910386664399,0.0000000000000009530152318188958,-0.00704726540088551
0.4414715719063545,-1.904798177491314,-1.0442770652328446,0.00919694049971995,0.0000000000000011420543574774318,0.0000000000000006104472932021269,-0.007613753548214321
0.44816053511705684,-1.8905331591894938,-1.065451903225617,0.00997091729758708,0.0000000000000008312903888495326,0.00000000000000033624286173843516,-0.008173304471105668
0.45484949832775917,-1.8762004530026006,-1.0847605788540546,0.010734117378417668,-0.0000000000000008121513224680675,-0.000000000000000015804544925928377,-0.008719327096570714
0.46153846153846156,-1.8614847560978203,-1.101650583347067,0.01148061182627375,0.0000000000000004736464400182822,0.00000000000000014249514999868466,-0.009241244743668053
0.4682274247491639,-1.84678659919039,-1.1164104497057306,0.012191375182596068,-0.00000000000000020068371600967694,-0.00000000000000022900654965696835,-0.009726182632206716
0.47491638795986624,-1.8320834726536146,-1.1292343184429,0.012862801641702767,-0.0000000000000006459622734256876,-0.0000000000000012506573499090135,-0.010169140941084542
0.4816053511705686,-1.8173282220626266,-1.1402683128470972,0.013489034845507059,0.0000000000000022332273994596396,-0.0000000000000030674612804060955,-0.010562036579974489
0.4882943143812709,-1.802243662371153,-1.147828707184193,0.014046663649785324,0.0000000000000006523436271570849,-0.0000000000000010820037858009758,-0.010869457347966089
0.49498327759197325,-1.7872808490853995,-1.1526137015844384,0.014540797251926273,-0.0000000000000006066936165956412,0.0000000000000002455857715399661,-0.011094977103122024
0.5016722408026756,-1.7723771566410393,-1.154817208613523,0.014980430140076188,-0.0000000000000015403838388125615,0.0000000000000000753352801732886,-0.011233595224936742
0.5083612040133779,-1.7574580861635096,-1.1545359270723914,0.015376156600208,-0.00000000000000222799175549321,-0.0000000000000019902503999325112,-0.011279054133565588
0.5150501672240803,-1.7425242127605933,-1.1498415129612034,0.015799586466964395,-0.00000000000000015941783406600696,0.0000000000000016886844338855656,-0.011188261912093071
0.5217391304347826,-1.7276680387521213,-1.1413750445379094,0.016567586613237994,-0.0000000000000008789147231628262,0.0000000000000017859999486515656,-0.01106742162823241
0.5284280936454849,-1.7128163144402875,-1.1288695663987565,0.020103649851916868,-0.0000000000000014080296922479942,0.0000000000000006024171734225847,-0.011780303657486123
0.5351170568561873,-1.6979388722608353,-1.1119684004582042,0.025705337464978,-0.000000000000000026545461967772463,-0.00000000000000014825985936752356,-0.01297284782305138
0.5418060200668896,-1.6832676549227943,-1.0894371767262303,0.004563445886661178,-0.00000000000000029974766987687377,0.0000000000000017343329450216706,-0.003161027249160918
0.5484949832775919,-1.6686287376956832,-1.0605115912738083,-0.0011096384176641082,-0.0000000000000032096351013857493,0.0000000000000009233670017021581,-0.0005368031958090207
0.5551839464882943,-1.6540721140898356,-1.0255386451701127,-0.001130754776203693,-0.000000000000004871304951564638,-0.0000000000000002612955483176355,-0.0005385917309857025
0.5618729096989966,-1.6396406938891093,-0.9843778602598665,-0.0011518415036787537,-0.00000000000000306804462529267,-0.0000000000000004631870591679009,-0.0005400899938618806
0.568561872909699,-1.6256870269290797,-0.9311273278602262,-0.0011724021483715073,-0.000000000000001272154595266969,0.00000000000000018583585923594466,-0.000541113784130518
0.5752508361204013,-1.6119636578498986,-0.8683425767509633,-0.0011927211507051937,0.0000000000000005609649389599842,0.0000000000000006045222065281756,-0.0005418518467504735
0.5819397993311036,-1.598477700088531,-0.7962028778552713,-0.001212772264470638,0.00000000000000140448070408251,0.0000000000000006905881358975803,-0.0005423384041183187
0.5886287625418061,-1.5854477733542098,-0.7073959954325549,-0.001232257177414892,-0.000000000000002478529288628565,-0.00000000000000012385355659253502,-0.0005424601853034662
0.5953177257525084,-1.5729453531594848,-0.5990893721538398,-0.0012510274124975362,-0.0000000000000003276070313833271,-0.0000000000000001891353903162395,-0.0005423098607367262
0.6020066889632107,-1.5607955928165835,-0.4780474468919293,-0.0012693114838984534,0.000000000000004259573115439367,0.00000000000000011256833597715525,-0.0005420039754506792
0.6086956521739131,-1.5499756833035376,-0.31221591801559356,-0.0012856723403666388,0.000000000000000871590173969113,0.00000000000000036024505483722115,-0.0005413945674571615
0.6153846153846154,-1.5398980994747187,-0.1206120139407443,-0.0013009236276805972,-0.0000000000000016832159069889821,0.0000000000000004977869557843915,-0.0005407620603234924
0.6220735785953178,-1.5320575151485076,0.14865697935996602,-0.0013128312267740663,-0.0000000000000017272423367051546,0.0000000000000003034374266947854,-0.0005400599438982045
0.6287625418060201,-1.5242169308222966,0.41792597266067627,-0.0013247388258675352,-0.0000000000000017712687664213273,0.00000000000000010908789760517936,-0.0005393578274729165
0.6354515050167224,-1.512549644530964,0.5963002729317501,-0.0013425025968719446,0.00000000000000028761352064866465,-0.0000000000000008298081194255522,-0.000537987477831231
0.6421404682274248,-1.4990471732166717,0.7280546402760162,-0.0013630815730629167,0.000000000000001840342729088749,-0.0000000000000017304572433397241,-0.0005362036421947839
0.6488294314381271,-1.483819918782022,0.808771712485188,-0.0013863224648735753,-0.0000000000000006936784941051487,-0.000000000000001652707193370262,-0.0005338094308140588
0.6555183946488294,-1.467717402876915,0.8773456216621524,-0.0014109172694852672,-0.000000000000003375579978983404,-0.000000000000002196967380147743,-0.0005307569424162166
0.6622073578595318,-1.451099549693594,0.9397045205315336,-0.0014362918908259646,-0.000000000000002503131979134512,-0.0000000000000014071490579418885,-0.0005271555408853919
0.6688963210702341,-1.4338807394869335,0.9966700724115718,-0.001462554819018772,-0.0000000000000011282691217779247,-0.00000000000000014984855821749229,-0.0005229278962319491
0.6755852842809364,-1.4161591893398613,1.0491531086286379,-0.0014895264048969273,0.000000000000000741623059650115,0.0000000000000010891952533456022,-0.000518038948103089
0.6822742474916388,-1.3979730390516172,1.0983178888234475,-0.0015171115972498488,0.000000000000001920636741168147,0.0000000000000014545840320919385,-0.0005124475968487139
0.6889632107023411,-1.379153668863995,1.144409251798222,-0.001545519059728275,0.0000000000000009322304805195107,0.0000000000000006460780937656768,-0.0005060430922821954
0.6956521739130435,-1.3598737524929143,1.1871958597265795,-0.0015744319443526968,0.000000000000002294588850903474,0.00000000000000024326285384284766,-0.0004988283982110982
0.7023411371237458,-1.3402111596694142,1.228353226408978,-0.001603671378945538,-0.0000000000000011816648661338695,-0.0000000000000015965480727700636,-0.0004907904690381225
0.7090301003344481,-1.320224900209378,1.267349023251347,-0.0016330812336829376,-0.000000000000000021280386245941263,-0.00000000000000031529251590762104,-0.0004819196792757254
0.7157190635451505,-1.29972749133562,1.3044469192832904,-0.0016628551492274973,-0.000000000000003561978836205384,-0.0000000000000008061581555702432,-0.00047209231848511346
