# n,energy,berry,bcd_x,bcd_y,qmd_x,qmd_y
0.00000016666666666666665,-3.103535054140046,-0.000000005240232144771788,0,0,0,0
0.006688963210702341,-3.0554972884624108,-0.0002126642502579636,0.0000000000000000006118163615881963,0.0000000000000000004153953765447586,0.0000000000000000003525923899914925,-0.0000000000000000005046900868855335
0.013377926421404682,-3.0081807085669805,-0.00041486735298448075,0.0000000000000000015214396913924799,0.0000000000000000003836822343316479,0.0000000000000000009519101568475076,-0.0000000000000000006295746662886071
0.020066889632107024,-2.9615273532267214,-0.0005831080026032313,0.0000000000000000018044832482017423,-0.0000000000000000002698344996639831,-0.0000000000000000005103749323481657,-0.0000000000000000005085704053291343
0.026755852842809364,-2.9162824207012017,-0.0006839950248366028,0.000000000000000003870014693942737,0.000000000000000002140395451401192,0.0000000000000000021772267837833988,-0.0000000000000000003948012199241221
0.033444816053511704,-2.8866011338856534,-0.0006277463207478553,0.000000000000000003549529855601738,-0.0000000000000000015050815383597054,-0.0000000000000000013893124333049683,-0.0000000000000000015529713657828649
0.04013377926421405,-2.8633832339764993,-0.0005021263821957011,0.000000000000000004466499247830282,-0.000000000000000001399699822185063,-0.000000000000000004753055349321109,-0.000000000000000002076129143324177
0.046822742474916385,-2.8403538710438574,-0.0003445215523743731,0.0000000000000000027806347052317747,-0.0000000000000000032707060179379586,0.0000000000000000055875364958953884,0.0000000000000000011105180707799963
0.05351170568561873,-2.817499081107642,-0.00014958335797871322,0.000000000000000007363238024641892,0.0000000000000000011425774679675399,0.000000000000000004148157504814773,0.0000000000000000009051663081842968
0.06020066889632107,-2.7948107664935735,0.00008150782707150246,0.000000000000000004541533582762723,-0.00000000000000000037908256818934117,0.000000000000000010050042330518843,-0.000000000000000002258698117137549
0.06688963210702341,-2.772295785630186,0.00035053114566594763,-0.000016058385948587885,0.000010747154158766883,0.000014668159390152958,-0.000019442582580032367
0.07357859531772576,-2.7499289158685096,0.0006596775075970588,-0.000033031529895202366,0.00002460672212661739,0.00003685675963361162,-0.00004167495000875367
0.0802675585284281,-2.727744851458218,0.00101156717141952,-0.000018891270543172737,0.000020316090629905636,0.00003674228942585171,-0.000028245398813577538
0.08695652173913043,-2.7057343813143464,0.0014086178619064792,-0.000011203111239939477,0.000020115289577576192,0.00004009864387803887,-0.0000228703705614581
0.09364548494983277,-2.6838828732835838,0.001850987011166122,-0.000004643977554716084,0.00002115335819138222,0.0000441445607896775,-0.000019611969222509334
0.10033444816053512,-2.662195750673477,0.0023434356475557807,0.0000019725836873467556,0.00002288483477152618,0.000048125212568855954,-0.000017237954614924524
0.10702341137123746,-2.6406792167226785,0.0028865945443238383,0.000009183175231169862,0.000025120343130865826,0.00005146519691676315,-0.00001531351995169754
0.11371237458193979,-2.619292407389302,0.0034829182961862285,0.000017356577615683502,0.00002779467142468957,0.00005342984565572596,-0.000013637523890145277
0.12040133779264214,-2.598124441449823,0.0041316496058819065,0.00002675877934926163,0.00003086054420391753,0.0000529662062664323,-0.000012149904198738456
0.12709030100334448,-2.5771153515218943,0.004841124601725904,0.000039097702258582166,0.00003369310208350094,0.00004904424174678099,-0.000013223877022157404
0.13377926421404682,-2.5562796152154257,0.005601705805789232,0.00008636428204427925,0.000021172773090115653,0.000054712980931201115,-0.00007292521209995396
0.14046822742474915,-2.535586012537791,0.006420876184841494,0.00009031287506600495,0.00003498571116517462,0.000023583522435077073,-0.0000615132445293364
0.14715719063545152,-2.5150540165120594,0.0072870190995257935,0.00010389888996553536,0.00004544319089723872,-0.000015863665917138682,-0.00006146164904688195
0.15384615384615385,-2.4947098714181255,0.008198258605824033,0.0001221276073115834,0.000055876795177692015,-0.00007358685505824995,-0.00006615906255279335
0.1605351170568562,-2.4745406382337043,0.009149712541505086,0.00014429187422892979,0.00006709000030055102,-0.00015893887257449594,-0.00007554679180788903
0.16722408026755853,-2.454507103140108,0.010111808614859445,0.00017050820697561312,0.00007949843481870565,-0.0002844062367785571,-0.0000913397726510388
0.17391304347826086,-2.4346622726667664,0.011074326579829505,0.0002009132293967551,0.00009334083748695406,-0.0004663137659241356,-0.0001166078800414765
0.1806020066889632,-2.4149837455304337,0.011986408240929272,0.00023585570362680635,0.00010887901020532585,-0.00072767127778119,-0.0001562491354772479
0.18729096989966554,-2.395496260159261,0.012797325868519366,0.00027558395761827025,0.00012636285534919648,-0.0010992627598393047,-0.0002174598433847331
0.1939799331103679,-2.3761940981600675,0.013388291398638511,0.00032042557195785293,0.00014611056228771996,-0.00162950399332358,-0.00031228852067773593
0.20066889632107024,-2.357102614743068,0.013565946266710658,0.0003703578473384123,0.00016841145158589114,-0.002383339037317979,-0.0004583639778169211
0.20735785953177258,-2.3382188617608377,0.013004779912953969,0.00042493043904917057,0.0001935158705560483,-0.0034415356303815862,-0.0006793836377930465
0.2140468227424749,-2.319552176874632,0.011079571381967001,0.00048329321303023845,0.00022172610941994644,-0.0049161383142874255,-0.0010099210637368938
0.22073578595317725,-2.3011743728076497,0.006378921377216121,0.0005437435743815965,0.00025318312012925125,-0.0069474975878110155,-0.0014963978214558578
0.22742474916387959,-2.28316555513907,-0.00439320336017748,0.0006036884838616407,0.00028791606228306324,-0.009703603291620243,-0.002198227706861221
0.23411371237458195,-2.2660566902978565,-0.03688644046894077,0.0006582788827569243,0.0003247301966539984,-0.013259775389617548,-0.003155474361260655
0.2408026755852843,-2.2492940531624863,-0.0877971439232405,0.0007059318076258419,0.00036448388928061933,-0.017876055652868685,-0.004460235212658957
0.24749163879598662,-2.2313711500650486,-0.1377625049874539,0.0007446362563462207,0.0004112082677008157,-0.024473868126112967,-0.0064176567140516285
0.25418060200668896,-2.2114230790327825,-0.16707589055680866,0.0007606936409745766,0.00046813769365399257,-0.0346372049312083,-0.00960039788159518
0.2608695652173913,-2.1903419406920697,-0.18399543072323046,0.0007286956063900321,0.0005320707410823949,-0.04961433144160211,-0.014560170545844228
0.26755852842809363,-2.1698374423373092,-0.16798295277368305,0.0006297995202704302,0.0005943497284831858,-0.06937528789154583,-0.021455950396971773
0.27424749163879597,-2.1523774265824853,-0.0986926998723694,0.00048235967582610186,0.0006436642827027241,-0.0906866098775702,-0.02921126318671016
0.2809364548494983,-2.1351548098301967,-0.04677242423729636,0.0002561433465955576,0.0006815136904791464,-0.11709631245648247,-0.03927118911754551
0.28762541806020064,-2.118209045467956,-0.0022287487138610562,-0.00004375976729427189,0.0006994615265101359,-0.1480456914121367,-0.05157896698836251
0.29431438127090304,-2.1015036343700646,0.03923954256900801,-0.0004012124746431522,0.0006904541409727829,-0.18241810197540562,-0.0657924736377205
0.3010033444816054,-2.0851236809825053,0.08104604799235991,0.0005507728707939662,-0.0002019255502854519,-0.22994589764807244,-0.08351066834838333
0.3076923076923077,-2.0692754079355486,0.1291798569686859,0.0022228970662110563,-0.0016188497292025906,-0.2898342997496341,-0.10491335973769834
0.31438127090301005,-2.0544252269706487,0.19551680056224793,0.000833055245367211,-0.0012292707091870801,-0.3448541800901135,-0.12820995482387496
0.3210702341137124,-2.0389749960862167,0.26611298283669105,-0.0000471440392033702,-0.0010774811756230922,-0.40915023713920395,-0.15585667707801495
0.3277591973244147,-2.0224400228459,0.32846569499361494,-0.0007729803716103891,-0.00094313764488334,-0.48177476950530185,-0.18796962081540025
0.33444816053511706,-2.00476679135611,0.3810486188728176,-0.001377531725133064,-0.0007596735479067967,-0.5615191891984148,-0.22457337484612674
0.3411371237458194,-1.9863610272781733,0.4287675943915888,-0.001799654303281869,-0.0005207317091209956,-0.6441307226881284,-0.2641711304787898
0.34782608695652173,-1.9676201563438016,0.4678112594729434,-0.0019670447408432113,-0.00026472338146343627,-0.7265342279482686,-0.30529788968419236
0.35451505016722407,-1.9498021694444732,0.4806644995516948,-0.0018551304718712053,-0.000046823781890870065,-0.8058532929354381,-0.3455888448923653
0.3612040133779264,-1.9344443908790239,0.4581431891657118,-0.0014986577292500185,0.00010038773693355481,-0.8863967143812145,-0.38460493212252456
0.36789297658862874,-1.9192948435323853,0.44548914789281807,-0.0008754122952746374,0.00020813256276532553,-1.0134087242733647,-0.4308127940927695
0.3745819397993311,-1.9043408199183438,0.4390250355924786,0.0006190141929636002,-0.00006500425779669357,-1.5178041643691444,-0.2548808079573842
0.38127090301003347,-1.8895915996521435,0.4363053369019464,0.0029468213683043662,-0.0007567615469387622,-2.3618386145494346,0.17244287532948055
0.3879598662207358,-1.8752801728494823,0.4248373262527676,0.001591435175601514,-0.00020509191322762104,-0.8101904996383356,-0.20771564774060391
0.39464882943143814,-1.8615631030287394,0.42458506598239304,-0.0015565065741294005,-0.0005118736964006831,-0.19687319175592716,-0.20325766108829962
0.4013377926421405,-1.8481525424207141,0.4341799759421702,-0.004971470780640265,-0.0014752389319810718,-0.1072959743814495,-0.013724539702165335
0.4080267558528428,-1.8346162999977988,0.46727386714744457,-0.0038217216244773346,-0.0036188643057851605,-0.07298851497155928,0.009980311199037518
0.41471571906354515,-1.8212543890131254,0.50736145100684,-0.0032290212263772653,-0.005013277107740488,-0.056201317076996334,0.021545445857026273
0.4214046822742475,-1.8080248773272023,0.5525406345816917,-0.0029544002506092216,-0.0059375775993208936,-0.04986543902623633,0.025718769718579455
0.4280936454849498,-1.7950589986016046,0.6066501969562867,-0.00273641218180873,-0.006469059502193422,-0.048657266375345995,0.025215402699466663
0.43478260869565216,-1.7823747029578618,0.6673477946421117,-0.002545599524224856,-0.006794824899464705,-0.052582440984171745,0.0205940488442369
0.4414715719063545,-1.76991300306868,0.7332533355094478,-0.0023762694469345487,-0.006957968236886965,-0.060565605509049734,0.012717363095422603
0.44816053511705684,-1.758150987306302,0.8126601978815983,-0.0024122691962673273,-0.006951977693408914,-0.08513085147240103,-0.007543392551073048
0.45484949832775917,-1.7466629195733214,0.8980425926876652,-0.0025138121779557546,-0.007059690095178323,-0.11775998201521662,-0.03344815410958196
0.46153846153846156,-1.7360252217720094,1.00242611696731,-0.002809066260688404,-0.0076384065105155816,-0.1764515627503419,-0.07739443736462513
0.4682274247491639,-1.726476468892218,1.128554169503158,-0.002972554716154252,-0.007878778845532581,-0.2262539529033797,-0.11362516077251543
0.47491638795986624,-1.7193579806932895,1.3032108096458592,-0.0028419737988083717,-0.007364048096701483,-0.2562177952234128,-0.13263659951408366
0.4816053511705686,-1.7122394924943607,1.4778674497885602,-0.0027113928814624915,-0.006849317347870386,-0.286181637543446,-0.1516480382556519
0.4882943143812709,-1.7036632249186823,1.6249453633672455,-0.0026003124332358222,-0.006076792030037837,-0.312489581139321,-0.17049578832082923
0.49498327759197325,-1.6934374793478268,1.740817935912929,-0.0025112967742500925,-0.0050125720459025195,-0.33466087374789766,-0.18915832457788667
0.5016722408026756,-1.6823722138819543,1.8419981990069358,-0.0025912512373327933,-0.003849545513012641,-0.353179323847263,-0.20682075768135985
0.5083612040133779,-1.6704399218361323,1.9280047623577259,-0.002845712091413704,-0.0025844750565043348,-0.3679252468550687,-0.22345031947112687
0.5150501672240803,-1.6579999867308381,2.0050094919103985,-0.003433338230875602,-0.001237538182106356,-0.377632888273995,-0.23792600184090457
0.5217391304347826,-1.6453752635556498,2.0779295833671494,-0.004193483040266905,0.00014373636623273857,-0.3840041467005961,-0.25072576425343934
0.5284280936454849,-1.6325105217675548,2.143124431500763,-0.005331194804504745,0.001583202125776009,-0.38154177673295453,-0.2586772770015745
0.5351170568561873,-1.6196503097169914,2.1997859608130645,-0.0068568257416682845,0.002879816006977402,-0.33336972319695707,-0.23777387769890843
0.5418060200668896,-1.6067976803554185,2.249081359962301,-0.008856992403805096,0.004149320246138278,-0.340823562997311,-0.12874699310477933
0.5484949832775919,-1.5940469522125487,2.2540835193375157,-0.01585204829754546,0.006730757448708245,-2.1405427180619654,1.4793678652121516
0.5551839464882943,-1.5809541095354886,2.266378213758996,-0.019910201000729065,0.008732027271182543,-1.8952425677642353,1.6904156371738386
0.5618729096989966,-1.5674581662792046,2.287265425619469,-0.020507912071285064,0.010049707875452158,0.7596262624128038,0.25535225206979195
0.568561872909699,-1.5539182869278478,2.3122861846258247,-0.022302818660315648,0.01292531122086903,0.6294673829139065,0.19786911121967848
0.5752508361204013,-1.5404571145667372,2.3366528748428785,-0.024172646084951944,0.016095645310151473,0.4827821608415667,0.18781997972298922
0.5819397993311036,-1.527087474109286,2.3600848562455616,-0.026072372421310924,0.019529175641974778,0.44594348682154955,0.1680808968843899
0.5886287625418061,-1.5139094298761246,2.3810054534534255,-0.027636333131253233,0.023065011636855804,0.44617554535983933,0.16509438138277305
0.5953177257525084,-1.5008358951974448,2.400862995289535,-0.02923463287730433,0.026660885876690025,0.45409980597300453,0.1664490685852605
0.6020066889632107,-1.4878942111737752,2.419415374754317,-0.030901775189967076,0.030333001964339943,0.47025854186597377,0.1727178232250078
0.6086956521739131,-1.4754808534905532,2.43361903428469,-0.039971945052194154,0.03833159638047903,0.49148370829344484,0.17603181951511196
0.6153846153846154,-1.4633334566566285,2.4452994947980513,-0.04361545133725918,0.04285790849659164,0.5118932238928412,0.18348136722517291
0.6220735785953178,-1.4518275354342915,2.4504999677906265,-0.02336739971268245,0.03234089047356317,0.5263627467678181,0.20754182495267082
0.6287625418060201,-1.4410312512333843,2.4429188299470797,-0.012442064234929068,0.02660459900757412,0.5381402490013129,0.2218711304583446
0.6354515050167224,-1.43106620698276,2.420365832920434,-0.01243697935342874,0.026468256227443296,0.5467644277234736,0.2248017599581192
0.6421404682274248,-1.4221619212531966,2.3723144224035724,-0.01225113418655922,0.026180665559191053,0.5541527658094391,0.22750815119324225
0.6488294314381271,-1.414654602257535,2.2906828570202977,-0.011827236625617268,0.025693888870668022,0.5599135626380018,0.22991923167670358
0.6555183946488294,-1.4071472832618732,2.2090512916370226,-0.011403339064675317,0.025207112182144994,0.5656743594665646,0.23233031216016492
0.6622073578595318,-1.3946934709435448,2.1878554018754985,-0.010072329858300913,0.02394985589951244,0.5719899000097538,0.23501913559087312
0.6688963210702341,-1.3797338818190334,2.0981047550322693,-0.0080197926909506,0.02217589315423652,0.576807951665158,0.23691448495154283
0.6755852842809364,-1.363090444497752,1.8091360758390211,-0.004995759498355748,0.019838486356994835,0.5771358271086214,0.23643764927079905
0.6822742474916388,-1.346014611410966,1.485143921291269,-0.0010223618476696821,0.017186631834501517,0.5699250906474358,0.23191565655057392
0.6889632107023411,-1.3289309008924903,1.1005268979504492,0.003791667076087556,0.01451277141397087,0.5547821747459202,0.22327485030171093
0.6956521739130435,-1.3126581917287248,0.5586344013663946,0.008990018693404484,0.012156273451478489,0.5326881825488704,0.21140345280176448
0.7023411371237458,-1.296280108754946,0.060955093847394365,0.014690718163368598,0.010114694883332599,0.5029492205495443,0.19619057572391244
0.7090301003344481,-1.279175898502592,-0.2868168572511676,0.021035095171373554,0.008447965296834219,0.4640601224877233,0.17716887713672233
0.7157190635451505,-1.261257785215273,-0.5381493252079206,0.028207140298148692,0.007135728346690453,0.41602344836949057,0.1544357793733199
0.7224080267558528,-1.242650178057523,-0.7762663924541819,0.03646060022744007,0.005959593882343461,0.36124061048376044,0.12882561144780905
0.7290969899665551,-1.2235064880515283,-1.0362586950210482,0.024443903225611407,0.01707496319924408,0.2861498798535659,0.11011962951983875
0.7357859531772575,-1.2038374588750227,-1.3598137809756383,0.027271230007526112,0.014857270262143047,0.24845447340768487,0.09260373065159944
0.7424749163879598,-1.1834581227203225,-1.7722611897999343,0.02914445886725696,0.012469231572238861,0.2052721729999669,0.07368019117439453
0.7491638795986622,-1.1584369206247676,-1.57404610856398,0.02937980504388053,0.009885917996877202,0.15271838608828336,0.05241655224537728
0.7558528428093646,-1.1343338751348133,-1.3102727402932217,0.027905542361143874,0.007835970106664559,0.10847644913598993,0.035858031789884746
0.7625418060200669,-1.1117022338063933,-0.96364560572952,0.025500060816389305,0.006307373947371008,0.0751187395425242,0.02427921405698586
0.7692307692307693,-1.0911477052648726,-0.5060832589790117,0.022862681744417218,0.0052218357854236595,0.05202062860396256,0.016843140584921975
0.7759197324414716,-1.0705352921383162,-0.1668013967012078,0.020101052742773406,0.004373712048149743,0.03495633523332288,0.011762545591373264
0.782608695652174,-1.0484894580422108,-0.03602243073812205,0.017260469601306457,0.003674799453920584,0.022109949747255747,0.008265134485985554
0.7892976588628763,-1.0256725475099018,0.029122980443495018,0.01459994082701835,0.003120903705210859,0.013180507980158972,0.006083759521438879
0.7959866220735786,-1.0022960741840072,0.06535426027215513,0.012242177274491995,0.00268340986015826,0.0072546569793854095,0.004821569028518055
0.802675585284281,-0.9783092550859468,0.08625952094894121,0.010250940343703729,0.0023365128071896764,0.003557531037332007,0.004179086019361463
0.8093645484949833,-0.9537907265138126,0.09859047907610798,0.008620611775708067,0.0020525787923266854,0.0012941408565406314,0.0038980492667207954
0.8160535117056856,-0.9287431824847301,0.1063218526320923,0.007300973428269422,0.0018079033444121772,-0.00010737347215632474,0.003818441915893358
0.822742474916388,-0.9032528927217124,0.111329465524316,0.006259830726675401,0.0015878045731947614,-0.0009600470530672815,0.0038636444358032557
0.8294314381270903,-0.8772580428784504,0.1146472267500951,0.005472762532131627,0.0013784528983142598,-0.001466040939369626,0.003996201520195094
0.8361204013377926,-0.8507603033237874,0.11670977933334403,0.004911291696250569,0.001164665528008582,-0.0017747510129087678,0.004199225267826834
0.842809364548495,-0.8237388473866987,0.11838974316047006,0.004523947572006509,0.0009320292078905569,-0.0019969416687248207,0.0044656282480622835
0.8494983277591973,-0.7962402167174952,0.11945422764220741,0.004305637008190155,0.0006634709487034936,-0.002182437626838769,0.004810445500787883
0.8561872909698997,-0.7682128289901429,0.12078410173050531,0.004265203662416374,0.00033178285173306995,-0.002370200842006586,0.005268237940883986
0.862876254180602,-0.7397119242912269,0.1224532378713925,0.004398693960200034,-0.00008624984228890805,-0.002585982219913008,0.005867446693005599
0.8695652173913043,-0.7106417386642961,0.12423664861464866,0.004824223912468888,-0.0006757842712238848,-0.0028660266373052054,0.006741306388157743
0.8762541806020067,-0.6811144339244621,0.12646626976733086,0.005708732052620645,-0.001544944796735237,-0.003243792141801553,0.008062052089125771
0.882943143812709,-0.6509769955059813,0.12941580308711567,0.007991957008297239,-0.003236867261499872,-0.003876238992023754,0.01069449914458087
