# n,energy,berry,bcd_x,bcd_y,qmd_x,qmd_y
0.00000016666666666666665,-3.0559682223466065,0.000000005016695173077545,0,0,0,0
0.006688963210702341,-3.007924943677687,0.00021210539781176202,0.00000000000000000035017931658670274,0.000000000000000000976026654684216,0.00000000000000000015283928150106153,0.0000000000000000003296823493087685
0.013377926421404682,-2.9605781024467897,0.00045685024131319097,0.0000000000000000029409076766157466,-0.0000000000000000024014057040757595,0.00000000000000000036199163982678355,-0.0000000000000000019910964326652116
0.020066889632107024,-2.934789130573463,0.0005058457468082197,-0.000000000000000000688353162308231,0.0000000000000000018547895002254236,-0.0000000000000000012223406955016252,-0.000000000000000000973739763619661
0.026755852842809364,-2.9111877870446166,0.0005456225121347703,-0.00000000000000000041721261458574614,0.0000000000000000015657178672731577,-0.0000000000000000014159564914485483,0.0000000000000000007809074105467452
0.033444816053511704,-2.887768049655871,0.0005980349471422811,-0.0000000000000000011704604746543658,0.0000000000000000026319019312660525,-0.0000000000000000008795095501208046,0.0000000000000000005620827678287401
0.04013377926421405,-2.8645199928305565,0.0006640046194945976,0.000000000000000002360160378119015,0.00000000000000000577285499730449,0.0000000000000000012563851274561847,0.0000000000000000005102184126194815
0.046822742474916385,-2.8414236640798434,0.000744063313258414,-0.00000000000000000008388604105984177,0.0000000000000000017383757694919662,0.0000000000000000008225406838588048,-0.000000000000000002980241445347318
0.05351170568561873,-2.8185287350363963,0.0008391155377462534,0.00000000000000000009188363263132963,0.000000000000000012424837941141162,-0.0000000000000000003252347123116512,0.0000000000000000012544956103417994
0.06020066889632107,-2.7957884774764983,0.0009507760251855129,-0.0000000000000000012193264605012749,0.000000000000000000461673828479518,0.000000000000000003593124941966792,-0.000000000000000005041532837877072
0.06688963210702341,-2.773229949597706,0.0010805624720614006,0.000000000000000005140919531377097,0.000000000000000011561483239683245,0.000000000000000003649108919288476,0.0000000000000000013758638612097735
0.07357859531772576,-2.7508416900969834,0.0012274627026382405,0.000000000000000002976978745203669,0.0000000000000000060656532872731255,-0.00000000000000000030440942928186165,-0.0000000000000000024604500460054708
0.0802675585284281,-2.72861436600608,0.001394290560939715,-0.0000429446839949726,0.000024256623237942286,0.000030595602057706946,-0.00003732964789056788
0.08695652173913043,-2.706536238054207,0.0015798968184104478,-0.00007416793774936762,0.00004073852147770411,0.000057325267419992845,-0.0000602871608938648
0.09364548494983277,-2.6846312491806987,0.0017869049125527814,-0.0000524786459265197,0.00002670727808707586,0.00004825514304662062,-0.000034723454967570596
0.10033444816053512,-2.6628969947785106,0.0020161743679738223,-0.00005098832755760659,0.000024503260121087358,0.00005089801258207345,-0.000027964847889324803
0.10702341137123746,-2.641322456390106,0.0022696076896056754,-0.00005306932802803282,0.00002427104216802003,0.00005482116855937721,-0.000024140460977013054
0.11371237458193979,-2.619959868040221,0.0025471450451785864,0.00001912765613158477,-0.000019274256819178234,0.00009913315204261952,-0.00010046600705366016
0.12040133779264214,-2.5987110752901517,0.002849414851633156,-0.000006106485729655142,-0.000006970905856076737,0.00007845414415932295,-0.00008688018848284678
0.12709030100334448,-2.577613547010224,0.00318379422572255,-0.000018631606640723568,-0.0000024464449158544923,0.00006611817851585589,-0.0000843875814052589
0.13377926421404682,-2.5566973268946227,0.0035449155075579293,-0.000026340966305440275,-0.000001343208188340539,0.00005459797777036034,-0.00008653869219830883
0.14046822742474915,-2.535985650492903,0.0039429105418001134,-0.00003289210136794765,-0.0000016507128013000342,0.000039797821968271034,-0.00008993078198064803
0.14715719063545152,-2.515402284344759,0.004370143695339523,-0.000039243808448223775,-0.000003024364665655617,0.00001916422667620616,-0.00009360503330180188
0.15384615384615385,-2.4949933190770257,0.004839857948355857,-0.00004576376667682212,-0.000005373454425269929,-0.000009925771858698678,-0.00009691993603866135
0.1605351170568562,-2.4747381084964633,0.005346222820081259,-0.00005268059444646896,-0.000008747995863595948,-0.00005075087095968533,-0.00009932116289652817
0.16722408026755853,-2.4546657429018595,0.005898478748690838,-0.000060106631564827864,-0.000013249150010115915,-0.00010737315480358071,-0.00010022911395337586
0.17391304347826086,-2.434761613817646,0.006505238175684292,-0.00006811232136062876,-0.00001901157136395691,-0.00018515687802965185,-0.0000990023901000834
0.1806020066889632,-2.415026342636604,0.007165029592582541,-0.0000767248293078194,-0.000026201639585570583,-0.0002910370485588532,-0.00009489100281594973
0.18729096989966554,-2.395485555498054,0.007898714049857598,-0.00008590192770953653,-0.000034971230865175265,-0.0004337498768215609,-0.00008704821512606437
0.1939799331103679,-2.3760925845103826,0.008715662466359407,-0.00009558664724496882,-0.00004550666726157731,-0.000625269480951862,-0.00007449031663388412
0.20066889632107024,-2.356898079085817,0.009639084352701322,-0.0001055818087629372,-0.00005796996022658941,-0.0008798944416046524,-0.000056196900533312364
0.20735785953177258,-2.337896743382116,0.010680100765217254,-0.00011563126396542023,-0.00007250107729540166,-0.0012164479422468503,-0.00003107937963275145
0.2140468227424749,-2.319067531677926,0.011912407462639716,-0.0001253604383357994,-0.00008925837406608085,-0.0016593124301676478,0.0000019923711026629792
0.22073578595317725,-2.3004803572546746,0.01342215521554965,-0.00013409521804194554,-0.0001084023472600066,-0.0022473384552226744,0.000044494101613134354
0.22742474916387959,-2.282144275250974,0.015320122395603064,-0.00014099876577851277,-0.00012980795631691624,-0.0030189023926954404,0.00009686195001778688
0.23411371237458195,-2.2640562143929492,0.01791234542091063,-0.00014495397397216276,-0.00015327324888416704,-0.004020437392818669,0.00015926625424546602
0.2408026755852843,-2.2462871059258713,0.02166861821829843,-0.0001446436199507885,-0.00017838492836977612,-0.005306044421516068,0.00023088678065948462
0.24749163879598662,-2.2289465778114868,0.027793963564608483,-0.00013850051811736952,-0.00020438694250696113,-0.006927365370740452,0.0003099862221768792
0.25418060200668896,-2.2125191140239844,0.04142535817204606,-0.00012545765395131065,-0.00022969682583489994,-0.00887477825018155,0.000392012046116323
0.2608695652173913,-2.1967120201403714,0.06174883877835207,-0.00010463375757695637,-0.00025389441491523716,-0.011188822052332039,0.0004759652319243732
0.26755852842809363,-2.1800847494255025,0.07991583833334268,-0.0000711253956807013,-0.00027804202794155266,-0.014205386241087019,0.0005681736522920057
0.27424749163879597,-2.1617178357912823,0.08527469742476032,-0.000012624069956068587,-0.0002996010046092202,-0.01854209491203876,0.0006738740950682565
0.2809364548494983,-2.14271550257042,0.08135729282761267,0.00007440385164419608,-0.0003122754692460775,-0.024182186677566143,0.0007928500394797244
0.28762541806020064,-2.1246142430716115,0.05882553912154649,0.0001885088502270217,-0.00030889713286892504,-0.030824140669823183,0.000937732657960577
0.29431438127090304,-2.104371651386435,0.03334410440609874,0.0003548180122110319,-0.00027932302985360515,-0.03967215237997775,0.0012015359284328593
0.3010033444816054,-2.0853723606241115,-0.005379895517786587,0.0005513499368391752,-0.00021401190527057726,-0.04922671082355136,0.0016901221460273476
0.3076923076923077,-2.0660206861694816,-0.038554391052372586,0.0007853355064045939,-0.00009781617425156863,-0.05953725895499723,0.002697112387480738
0.31438127090301005,-2.0457423232795175,-0.0626747299659418,0.0010510725968145116,0.00009098515604063375,-0.06967955460716825,0.004776928349970452
0.3210702341137124,-2.0254908755736136,-0.0747459378182354,0.0013077875596676101,0.00035847939778878605,-0.07695009987937755,0.008661095847547814
0.3277591973244147,-2.008185637230259,-0.06810566656667363,0.001485451050709229,0.0006498819537572389,-0.07836195908468195,0.01428873009856797
0.33444816053511706,-1.9918848847050297,-0.059424558594477435,0.002323434985499549,0.000601724091528518,-0.09196875856142026,0.018080880682853927
0.3411371237458194,-1.975743321553142,-0.054002949045296185,0.0031563822019467455,0.0005297981731194553,-0.11021134843014418,0.02103628993006474
0.34782608695652173,-1.9597513298035445,-0.05089637484962884,0.002656295711815708,0.001063092475306217,-0.11304139426767626,0.02770534020877062
0.35451505016722407,-1.9439871615697017,-0.0498865436752755,0.0003804553068853431,0.00242236894611373,-0.0968147122259519,0.05373215538344729
0.3612040133779264,-1.928386869947551,-0.05049789349531177,0.0008519239826949962,0.0019051085194934226,-0.07291149280623017,0.07445175196569817
0.36789297658862874,-1.9129518757900532,-0.05276039950490455,0.001147152572077221,0.0011857219123346998,-0.02934544159345045,0.10384719353896407
0.3745819397993311,-1.8976864512340077,-0.05653124871611657,0.0007753888279179086,0.0008303943872491273,0.043275153843742725,0.1458217538883658
0.38127090301003347,-1.8826097121040297,-0.061582165267398195,0.0004656061281666272,0.0010314998502393299,0.1594604046350214,0.20082413812482935
0.3879598662207358,-1.86715802538144,-0.04443082447425215,0.0002661172165680947,0.0009219635414012275,0.20267768404915099,0.22772530110774603
0.39464882943143814,-1.8519878348061358,-0.025241600731150324,0.000039950346874009166,0.0007652702759004933,0.24434612557575972,0.2531136951840847
0.4013377926421405,-1.8371528139357642,-0.006090626770195336,-0.00020704737333363384,0.0005887476403175076,0.291273099890201,0.2797900483872813
0.4080267558528428,-1.822665454149495,0.012926947797131936,-0.00045280896297808656,0.00039227650614586035,0.34353409483173236,0.3080546083249421
0.41471571906354515,-1.808612350390675,0.03107578124457185,-0.0006518768345270686,0.00018059246488796364,0.4048875782492486,0.34108818124927753
0.4214046822742475,-1.7948421839898314,0.04784934195786556,-0.0007835911702895156,-0.000009393555875256737,0.4735414327669381,0.3805225479327579
0.4280936454849498,-1.7813323594625867,0.06304121558962665,-0.0008362602681503189,-0.00016423689394004306,0.5472056719481724,0.4266938109801141
0.43478260869565216,-1.7683213373663105,0.07002491309154646,-0.00043828331174288496,0.000017845660163816194,0.5857543969661317,0.4963594948931534
0.4414715719063545,-1.7556340765585157,0.055650522547766645,-0.00006743645752390655,0.0015024646440997664,-2.177210440315667,8.311720531423116
0.44816053511705684,-1.7432613355796633,0.020527690366066206,0.000277054697594874,0.004252440388332346,-7.6617222869012,23.651683378050212
0.45484949832775917,-1.730981933883519,-0.01909249713837843,-0.0015627489788580153,0.006116512900962209,-4.113969877142263,10.897662622008847
0.46153846153846156,-1.7189113558200317,-0.05352894207396394,-0.002804526752649735,0.007865337786449936,-0.8183011953770615,-0.6276278638282321
0.4682274247491639,-1.7073621765862268,-0.07299046351851962,-0.0018220953815754055,0.009575212456724897,-0.878948553838067,-0.5439435796678835
0.47491638795986624,-1.6959176179215416,-0.0851095371876042,-0.0012593985953103667,0.010865917569214425,-0.8797130028851973,-0.4922996444837553
0.4816053511705686,-1.684558084427096,-0.09126140118332834,-0.0010378202413868134,0.011815963447006847,-0.8318105921533325,-0.4666949112381768
0.4882943143812709,-1.673558095873093,-0.09836200106273466,-0.0008968945614158732,0.012581949528066787,-0.7905008555168301,-0.4496804123266487
0.49498327759197325,-1.6626485139982403,-0.10570115821547978,-0.0007762487952929745,0.013301654231985828,-0.7508488303501387,-0.4348259064282647
0.5016722408026756,-1.6524558925377422,-0.11999298758262394,-0.0006514424069105297,0.013883541563638429,-0.7227778821547706,-0.42690846724454046
0.5083612040133779,-1.6423022391627857,-0.1348033067016235,-0.0005259444381312442,0.014459243164908805,-0.6951613774956404,-0.4192464745842706
0.5150501672240803,-1.6332821686405257,-0.16858237120134215,-0.0003674645497168193,0.014891065994543448,-0.6759277918767824,-0.4156547971215624
0.5217391304347826,-1.6242620981182656,-0.2023614357010608,-0.00020898466130239436,0.01532288882417809,-0.6566942062579244,-0.41206311965885417
0.5284280936454849,-1.6173675018614508,-0.2882882453075427,-0.00005122899653511992,0.015592553039960043,-0.6439599327847866,-0.4104784150458293
0.5351170568561873,-1.6109708925401554,-0.38643298490835926,0.00010635698661307373,0.015824224383989356,-0.6327484124171792,-0.40936393313807695
0.5418060200668896,-1.60457428321886,-0.4845777245091758,0.0002639429697612674,0.01605589572801867,-0.6215368920495719,-0.4082494512303245
0.5484949832775919,-1.5963144170157004,-0.519866272838467,0.0005220528918397928,0.01625301981125102,-0.6084470026335559,-0.4075849729153446
0.5551839464882943,-1.5872476724263975,-0.52793511643143,0.0008236944355655223,0.016435183296023313,-0.5945436905482808,-0.4071153674470607
0.5618729096989966,-1.5779941820974865,-0.5209554514228698,0.0012122613913423891,0.016524585403556582,-0.5562057191371358,-0.3929565022608495
0.568561872909699,-1.568555458063414,-0.4990491218956579,0.0016870499454311031,0.016521977199968733,-0.4936309298430616,-0.36521921593478424
0.5752508361204013,-1.559239657892695,-0.4605852433353168,0.002001569597943967,0.016189651752227596,-0.43942636410726554,-0.3421897726901388
0.5819397993311036,-1.5501138870408608,-0.39652487212230497,0.0020683278364075817,0.015347612880081556,-0.3981614167523059,-0.3264382345631154
0.5886287625418061,-1.5413761667953076,-0.31461252636351067,0.0021380302261940383,0.01449070250682651,-0.36026303319830927,-0.312358546989622
0.5953177257525084,-1.5340876871743023,-0.1660289621569492,0.0022187280470732855,0.013578251997294623,-0.33493765158405936,-0.3045226680872983
0.6020066889632107,-1.5267992075532972,-0.017445397950387742,0.0022994258679525327,0.012665801487762734,-0.30961226996980945,-0.2966867891849746
0.6086956521739131,-1.5189255833144957,0.1257879721076351,0.0024157794629664385,0.011570959117264818,-0.28440137588334896,-0.28926652560533195
0.6153846153846154,-1.5104172734940065,0.2632181766198531,0.002570807609636337,0.01027828277401614,-0.2593146623515089,-0.2822970652029068
0.6220735785953178,-1.5013511246653757,0.38426519794473607,0.0027396569574650678,0.00884376331898149,-0.23321077141707955,-0.27506555165042035
0.6287625418060201,-1.4888523859957632,0.4045004306513672,0.002993553270449603,0.006536430709212871,-0.20084781152611425,-0.2662215280949238
0.6354515050167224,-1.4757930517989768,0.4186610302848456,0.003221665471738243,0.003817103587091905,-0.16898160218057037,-0.25705017756874987
0.6421404682274248,-1.4622080558335977,0.4269472919667571,0.0034117789788773553,0.0006884392930126028,-0.137582598574191,-0.24745450379604197
0.6488294314381271,-1.4478650313136574,0.4248154155412077,0.0033961211847085976,-0.003281923321921673,-0.10687273380241054,-0.23596460106514644
0.6555183946488294,-1.4330401322462623,0.4176360597662904,0.00299908603251647,-0.007874899275765155,-0.07605416853537274,-0.22163298991434932
0.6622073578595318,-1.4177716750262523,0.4032863942441321,0.002089081275978446,-0.012959754706053771,-0.04516287091124466,-0.20409225606982884
0.6688963210702341,-1.402052741049641,0.378982487560179,0.0004678563139891046,-0.01838936360105567,-0.014375845875471261,-0.1828854984084424
0.6755852842809364,-1.3857571204970978,0.340610073794576,-0.002310252059794345,-0.023628351749462664,0.014985468085691196,-0.15856925216592188
0.6822742474916388,-1.369016613284201,0.28120034297914004,-0.006542702526917985,-0.028279339202712004,0.046276257385179945,-0.11824818518648196
0.6889632107023411,-1.351826571998324,0.1888708048257633,-0.005599101393257696,-0.03257632600479723,0.059553883833720345,-0.09920490316779852
0.6956521739130435,-1.3340256894251075,0.0681725631488665,-0.0047600508092885425,-0.034643461518330726,0.055250178976465975,-0.0824980625821238
0.7023411371237458,-1.3142631136199165,0.1264138752019826,-0.005706298411500593,-0.03348730220801561,0.05789844365400515,-0.057714317177037955
0.7090301003344481,-1.292820719947871,0.46557498430236943,-0.006246684078161396,-0.03007715808755923,0.07284850506610008,-0.03499867840541872
0.7157190635451505,-1.2721828076133619,0.9116926275002784,-0.006849882373210329,-0.02610749447043773,0.07666526159557725,-0.018779870334854145
0.7224080267558528,-1.2517026713088022,1.4194862055453183,-0.00730860280156573,-0.022013165417727593,0.07275477401270541,-0.008008935151932042
0.7290969899665551,-1.2303357731700781,1.7206611307005053,-0.007506452618840062,-0.01796120946822459,0.06383078122763686,-0.0012624316609526304
0.7357859531772575,-1.208276499458386,1.7559753533916191,-0.007384560105956839,-0.014244219987987913,0.05252618460876932,0.002389249509110085
0.7424749163879598,-1.1864847394608387,1.6518989586939705,-0.006987677901483004,-0.011129521328829602,0.041418126307444944,0.003964109217164679
0.7491638795986622,-1.165829541003882,1.4287214216101563,-0.006425547720138011,-0.00869228746762922,0.03203094783037688,0.004414200281133086
0.7558528428093646,-1.146944446614108,1.092512473197645,-0.005817432813887951,-0.006867811483838757,0.02481633439203234,0.004384376084216471
0.7625418060200669,-1.126512222914819,0.9453975286897003,-0.0051182746105355266,-0.005241197159650849,0.01840613121452313,0.004164958037763896
0.7692307692307693,-1.1050848317773314,0.8826588890345465,-0.00437966595165082,-0.0038666202763284418,0.013119109959333002,0.0038690783172247254
0.7759197324414716,-1.082943543170152,0.8523255723985496,-0.0036474910235710953,-0.0027578358212841637,0.009053328984603135,0.0035840518581935535
0.782608695652174,-1.0602736814524225,0.8359492927782999,-0.0029504733216133634,-0.001865254782920049,0.0059731711722431965,0.0033515275403923845
0.7892976588628763,-1.037061556655722,0.8273321396654082,-0.002300559212452583,-0.0011492438082240481,0.003673577955418893,0.0031828725093958543
0.7959866220735786,-1.0133266523807882,0.8237708216950036,-0.0017042334206015604,-0.0005791229326079867,0.001982002156219403,0.0030780430124382327
0.802675585284281,-0.989136510026398,0.823223900396526,-0.0011640251145984288,-0.00013030976800872102,0.0007541226795553192,0.0030321564546855243
0.8093645484949833,-0.9644582050635793,0.824657828359822,-0.0006788190544332228,0.0002156614646863495,-0.00012331635993335027,0.003040732424200795
0.8160535117056856,-0.9392407891280625,0.8279956876302105,-0.00024764231282192067,0.0004693751579724878,-0.0007343147280294411,0.003102756336153847
0.822742474916388,-0.9135544500307043,0.8320063627145582,0.00014211435162845258,0.0006538755267095623,-0.0011854314500730873,0.003209038397165419
0.8294314381270903,-0.8874477137854209,0.8367150883299143,0.0004962816084667328,0.0007762274874828714,-0.0015268849963486037,0.0033585560490955345
0.8361204013377926,-0.860770843566926,0.8423267848289744,0.0008207449727540767,0.0008335771190207539,-0.0017914265885170012,0.003561723221119007
0.842809364548495,-0.8336079919938617,0.8484874059748236,0.0011284703932046228,0.0008310813054094634,-0.0020183968741558558,0.0038200604371404832
0.8494983277591973,-0.8059545161881017,0.8549772824794478,0.0014326048552732104,0.0007686437172721541,-0.0022313022763751295,0.0041424825097189175
0.8561872909698997,-0.7777902227904925,0.8620094856519162,0.001758232033253889,0.0006219762590667944,-0.0024493982716307884,0.004567484544534192
0.862876254180602,-0.7490954189172689,0.8692531128066183,0.0021401850088052,0.0003855674162721961,-0.002690015606256202,0.005117120217147204
0.8695652173913043,-0.7198782364775731,0.8770971403003424,0.0026841421324369638,-0.000009542032788296314,-0.0029795967961589224,0.005907722892778421
