# n,energy,berry,bcd_x,bcd_y,qmd_x,qmd_y
0.00000044444444444444444,-3.0016662039607267,0,0,0,0,0
0.006666666666666667,-2.977598661056477,-0.00000004220097304493422,-0.000000000000000000002710247107468896,0.00000000000000000000022920329112335113,0.0000000000000000000008367958143210992,-0.000000000000000000001472446308626675
0.013333333333333334,-2.9536862576864533,-0.00000026858509926185664,0.000000000000000000010998948968548191,0.000000000000000000009397087067029897,-0.0000000000000000000057601219244636394,-0.000000000000000000012948034397262134
0.02,-2.9299501808865767,-0.0000008989916197133207,0.00000000000000000002764550940403961,0.00000000000000000001280841702808187,-0.00000000000000000002887862842681188,-0.000000000000000000035576282590894095
0.02666666666666667,-2.906397642943724,-0.0000021628698684949455,0.000000000000000000022711480394265156,-0.0000000000000000002279045093051373,-0.0000000000000000000034620324251929676,-0.00000000000000000003966302798145406
0.03333333333333333,-2.88300100457986,-0.000004381165229136218,0.00000000000000000005220701395783481,0.00000000000000000027286053541807362,-0.00000000000000000004062943442941933,-0.00000000000000000002256415942241367
0.04,-2.8597704771237398,-0.000007668114142751076,-0.00000000000000000034818730457131565,0.00000000000000000025817155260038995,-0.00000000000000000004761541301497627,-0.00000000000000000006087900030175126
0.04666666666666667,-2.8367431296404764,-0.000012641887477588126,-0.0000000000000000002811437159776299,0.0000000000000000006012510632438421,0.00000000000000000001246027990630845,0.00000000000000000015678412067096016
0.05333333333333334,-2.813885231631857,-0.000019460550565707316,0.0000000000000000003130946068468477,-0.0000000000000000009345692734434522,0.0000000000000000006260502254702551,0.00000000000000000037843695623769663
0.06,-2.7911416987461917,-0.000028951392692669026,0.0000000000000000017719156686066343,0.000000000000000000575090477357685,-0.00000000000000000019453020778785735,-0.00000000000000000027853154063567654
0.06666666666666667,-2.7685798242606787,-0.000040903666884395706,-0.00000000000000000029366647227284767,-0.0000000000000000025912052164651445,0.00000000000000000012375273545202423,-0.00000000000000000032429844422872503
0.07333333333333333,-2.7462255005899765,-0.00005609698198453045,0.0000000000000000004989161131383194,0.000000000000000004963620676198434,0.0000000000000000020471930659816228,0.000000000000000001187303085532748
0.08,-2.7239860167451333,-0.0000758057487495285,-0.000000000000000003572627841150324,0.0000000000000000030065136826021162,-0.0000000000000000020181344942459613,0.000000000000000001680530266391763
0.08666666666666667,-2.7019467880222967,-0.00010028156984977457,-0.000000000000000007684993679762413,0.00000000000000000033873142849619425,-0.000000000000000000635932923055304,0.0000000000000000012855292569467904
0.09333333333333334,-2.680051277964099,-0.00012974299928179877,-0.0000000000000000024417577017134902,-0.00000000000000000865995470499021,0.0000000000000000021672215034479013,0.000000000000000003756243414016416
0.1,-2.658302513969031,-0.0001654935175122033,0.0000000000000000030637061715227784,0.00000000000000000002726997388923776,0.000000000000000007165094914877773,-0.0000000000000000010155929255870757
0.10666666666666667,-2.6367430934466842,-0.00020741433412807325,0.0000000000000000032520040633709238,0.0000000000000000036267646837035746,0.0000000000000000014532504554391673,0.000000000000000004312901608848283
0.11333333333333333,-2.6153353140323854,-0.00026001878463813115,0.000000000000000012937911162466081,0.000000000000000017823063437903773,0.0000000000000000033224615565874203,0.000000000000000006382468208517262
0.12,-2.594053923842001,-0.00031957529615740855,0.000000000000000007692052415162108,-0.00000000000000000713951078920955,-0.000000000000000018017409149013438,0.0000000000000000056312248916052745
0.12666666666666668,-2.572947595755967,-0.0003926449248197046,-0.000000000000000005160092305648823,0.000000000000000010874192932138844,0.0000000000000000013028352924958328,-0.0000000000000000016887039169237982
0.13333333333333333,-2.552025723830219,-0.00047155672425313894,0.000000000000000009579448078031626,0.000000000000000004589437191053722,0.0000000000000000068758329976367385,0.000000000000000010837079699259292
0.14,-2.5311632393874848,-0.0005697239926195927,-0.00000000000000003269520690637156,-0.000000000000000029851306425140876,-0.00000000000000002412301186336416,0.00000000000000002126245654699496
0.14666666666666667,-2.5105769497096593,-0.0006793125774060409,-0.000000000000000022499830115112862,0.00000000000000003376720364043493,-0.000000000000000004432129351768116,0.0000000000000000067680505769936515
0.15333333333333332,-2.490098330015829,-0.0008052176837371342,-0.000000000000000025013082261976144,-0.000000000000000013093553466724986,-0.00000000000000001612104539479565,-0.000000000000000013736877189084941
0.16,-2.4697632970571135,-0.0009527189747125193,0.000000000000000027638655474166796,0.000000000000000008043922501532128,-0.000000000000000014832887787046645,-0.00000000000000001203321503231579
0.16666666666666666,-2.4496286036536485,-0.0011169093904988038,0.000000000000000029045250297782373,0.00000000000000005910066082991551,-0.000000000000000005258970541751856,0.000000000000000003521037283307562
0.17333333333333334,-2.4296444283275944,-0.0013036183951778038,0.000000000000000004235877348334612,0.00000000000000010273536917598312,0.00000000000000001432577722067246,0.0000000000000000073517458588892
0.18,-2.40976426606238,-0.0015215565594480802,-0.000000000000000021463258849024357,-0.00000000000000004709385705535857,0.000000000000000002025098378042306,-0.000000000000000014000870457460288
0.18666666666666668,-2.3900781861559204,-0.001769697219515936,0.000000000000000021115182384071007,-0.000000000000000052369528732934165,-0.000000000000000049643336589534554,0.000000000000000010399599873289913
0.19333333333333333,-2.370527979106967,-0.00204660176981623,0.000000000000000040174452770895686,-0.0000000000000002301539060978093,-0.000000000000000002890757045992794,-0.00000000000000001142947643669591
0.2,-2.351158168904338,-0.002361177654481922,-0.00000000000000004760498677592183,-0.0000000000000000303373531882466,-0.000000000000000010343535238313502,-0.000000000000000027485367652952312
0.20666666666666667,-2.3319131616346276,-0.002707494787660214,-0.000000000000000025525201493618857,0.00000000000000007235360183146812,-0.00000000000000002607795972900263,-0.00000000000000001519187415500604
0.21333333333333335,-2.31278959304001,-0.003102075788808043,-0.00000000000000006930700476497255,-0.00000000000000021559107266767586,-0.0000000000000000202393292258304,0.00000000000000006016271699682774
0.22,-2.293833401232308,-0.00354999554589211,-0.00000000000000010030265915698308,-0.0000000000000001152530940503079,-0.0000000000000000036292433875221956,-0.000000000000000011754028462425843
0.22666666666666666,-2.2750601244363327,-0.004055817598828634,-0.00015670108489125053,0.00000000000000004128162985164212,0.00000000000000004849116887013299,-0.00006240475798199178
0.23333333333333334,-2.256414468317393,-0.00460497009151752,-0.0009461233112784532,0.00000000000000008148428374255098,-0.00000000000000005940184843782306,-0.0003777863221943259
0.24,-2.237955900883233,-0.00522973572381288,-0.0005433160026914633,0.00000000000000004363905571897302,-0.00000000000000006257158198515953,-0.00022566795827239352
0.24666666666666667,-2.2195790296396485,-0.005912848962075873,-0.0004565329191354119,0.00000000000000007209796177125744,0.000000000000000032748877903768527,-0.0001956581266279163
0.25333333333333335,-2.201449451536057,-0.006699176625080527,-0.0004207513253542706,-0.00000000000000008686470147526432,0.00000000000000006736860257596657,-0.0001848783586406863
0.26,-2.1834465214356857,-0.0075789317076405275,-0.00040210190475250044,0.00000000000000019207680608258152,0.00000000000000006207226870045991,-0.00018036257357305027
0.26666666666666666,-2.165634026292637,-0.008535300432695106,-0.000392740388511292,0.000000000000000029995782114292564,-0.00000000000000008747001339308826,-0.00017913835558424935
0.2733333333333333,-2.1479601354578373,-0.009622439607831053,-0.0003887732926449223,-0.00000000000000013026157170611468,-0.00000000000000011782464764764566,-0.00017973530603504812
0.28,-2.1304334030456547,-0.010809702137317209,-0.00038814721403849237,-0.0000000000000002567959047084424,-0.00000000000000027306119605025147,-0.00018136746988021545
0.2866666666666667,-2.1130448217494604,-0.012118565740483993,-0.00038973048620388566,-0.0000000000000002999035453851567,-0.00000000000000025689304021048127,-0.00018360764868297042
0.29333333333333333,-2.095806538630728,-0.013593914956122145,-0.00039302124587935937,-0.0000000000000002517319049287971,-0.00000000000000015751917126447685,-0.00018628477945267013
0.3,-2.0787493757154305,-0.015246937303738117,-0.0003977305750703232,-0.00000000000000013563758174673606,-0.00000000000000025707002160647594,-0.0001893075688656347
0.30666666666666664,-2.061861014234582,-0.017064329104651336,-0.0004034015447983989,0.00000000000000015641623883360752,0.00000000000000008493276268346297,-0.00019249497358882065
0.31333333333333335,-2.045105955807456,-0.019143331421251464,-0.0004099043961236035,0.00000000000000012187012599897038,0.000000000000000004997702439619824,-0.00019578171898422113
0.32,-2.028609540318972,-0.02140297670738586,-0.0004170480881628885,-0.00000000000000019475685134626934,-0.00000000000000017812627313441577,-0.0001991043298383092
0.32666666666666666,-2.012187388558716,-0.023918779473408147,-0.00042466439744973604,-0.0000000000000004828106413563471,0.00000000000000007816733507901658,-0.00020241981890062061
0.3333333333333333,-1.9959496962967278,-0.026760928185770808,-0.0004327645327932366,-0.0000000000000005657504508970792,0.00000000000000015912719242892254,-0.00020574582875220915
0.34,-1.9799115375307814,-0.029916893853857516,-0.0004411989497828668,-0.00000000000000037481625627352046,0.00000000000000004430442791131376,-0.00020902434484747537
0.3466666666666667,-1.9640060271685391,-0.03334742594843721,-0.0004497602802312457,0.000000000000000021097892587377005,0.00000000000000017628052732395793,-0.0002121637473987504
0.35333333333333333,-1.9483734196936826,-0.037286493299151284,-0.0004587477849778508,-0.00000000000000002843616621632131,-0.0000000000000001340427129553466,-0.00021528193013407762
0.36,-1.9328477116730756,-0.04168228636397787,-0.0004679763016044059,0.0000000000000007970636388809336,0.00000000000000026352698637653113,-0.0002183093098912922
0.36666666666666664,-1.917514492792887,-0.0465251818915093,-0.00047734619773151337,0.0000000000000008210969331057476,0.00000000000000016707536880419508,-0.00022123369344830807
0.37333333333333335,-1.9023713587385462,-0.05189349073367358,-0.00048683926551802654,0.0000000000000002975699489243345,-0.00000000000000014083472096844583,-0.00022405543763050166
0.38,-1.887382221309221,-0.05791639121035653,-0.0004964683431846526,0.0000000000000002807773227187656,0.00000000000000025202339318503496,-0.0002267790126931906
0.38666666666666666,-1.872718055689311,-0.06484447635531905,-0.0005062928005835941,0.0000000000000005499847766014382,0.0000000000000002862602708331314,-0.0002293931904418045
0.3933333333333333,-1.858205450075132,-0.07253143500403436,-0.0005161347558948776,-0.0000000000000004928469227770825,0.00000000000000024819188830278085,-0.0002318760249484833
0.4,-1.8438546178149482,-0.08104956237884697,-0.0005260278496765598,-0.0000000000000015470063276895303,0.000000000000000017910153780241132,-0.00023425106499310594
0.4066666666666667,-1.8297059826291455,-0.09060930723398183,-0.0005360295311809089,-0.0000000000000008205375288439245,-0.0000000000000005995481216632832,-0.00023653642960711009
0.41333333333333333,-1.81584211634474,-0.10185053474827645,-0.0005460120651842599,0.0000000000000004837614681026682,-0.00000000000000037052919493854643,-0.00023864859972079228
0.42,-1.80220213154493,-0.11427824338449545,-0.0005560005052517951,0.0000000000000010514415184992983,-0.000000000000000380657123137667,-0.00024066765426921543
0.4266666666666667,-1.7887771608060565,-0.12785831285879132,-0.000565994515102445,0.0000000000000008116825344559685,-0.0000000000000007134862153628225,-0.000242602556433858
0.43333333333333335,-1.775731041191474,-0.14424843985562874,-0.000575922843338369,0.0000000000000009119182513498092,-0.0000000000000006835131501000513,-0.0002443651226060563
0.44,-1.7628963613223427,-0.16274388516973956,-0.0005857937637407884,0.000000000000001619315739191777,-0.0000000000000003344132893687369,-0.0002460281132588656
0.44666666666666666,-1.7502427902790543,-0.1830426420024704,-0.0005956155114330441,0.000000000000002846777963198922,0.0000000000000002880347968765417,-0.00024760581244785517
0.4533333333333333,-1.7380949968197767,-0.2083200763992454,0.027807389859593603,0.0000000000000017015615073663164,0.00000000000000002526805379085488,-0.015152841271001324
0.46,-1.7261927363502785,-0.23652535042313086,0.04356409738500827,0.0000000000000010604615662842178,-0.000000000000000520714863702926,-0.023441336710847558
0.4666666666666667,-1.7146804152091637,-0.2693919754955515,0.03863913115755764,0.0000000000000012573984718495339,-0.0000000000000015131710908601064,-0.020908445423100157
0.47333333333333333,-1.703697715462426,-0.31043482509167264,0.03193944976351999,0.0000000000000008693129009110293,-0.0000000000000008370268897422548,-0.017184793551623452
0.48,-1.6929592043749477,-0.35524742667561204,0.02442151343926858,0.0000000000000002114952993359101,0.0000000000000006084466959993519,-0.012912126414663608
0.4866666666666667,-1.68331389324011,-0.4196961019624181,0.016585497886297207,-0.0000000000000002656513772348313,0.00000000000000043270818921575464,-0.00882230561618371
0.49333333333333335,-1.6738414902705798,-0.48725055626943903,0.008699172693513321,-0.0000000000000007142218742223951,0.0000000000000000005474169387548023,-0.00476140507592693
0.5,-1.6666075278153856,-0.6054361351477657,0.004990599694600074,-0.0000000000000013811666356257372,-0.00000000000000008895492592089611,-0.0029398964841248357
0.5066666666666667,-1.6599365605569258,-0.7363560617813145,0.0023327825246820923,-0.0000000000000021030351982957295,-0.00000000000000009227447828548246,-0.0016816223863877796
0.5133333333333333,-1.6532655932984663,-0.8672759884148612,-0.0003250346452358449,-0.00000000000000282490376096571,-0.00000000000000009559403065006876,-0.0004233482886507444
0.52,-1.6439702498472668,-0.9370640541209792,-0.0006840386978970158,-0.000000000000002168016418412049,0.00000000000000030578126963234973,-0.0002573984222571419
0.5266666666666666,-1.6342747623712899,-0.9975312195151225,-0.0006925379961348917,-0.0000000000000013009073330197485,0.0000000000000007688612247553758,-0.0002579974734695635
0.5333333333333333,-1.6236098621681845,-1.0332679878310678,-0.0007020334117428807,-0.0000000000000011205904375698852,0.00000000000000031816071344990104,-0.0002585499237274404
0.54,-1.6127516931574555,-1.0638410858344007,-0.0007117324683345163,-0.0000000000000009998612111718302,-0.00000000000000025550216013562956,-0.00025908920824889865
0.5466666666666666,-1.6014109585461362,-1.0772662415726624,-0.0007220320782046884,0.0000000000000003828691098039529,-0.00000000000000005596530747489463,-0.00025952493006198366
0.5533333333333333,-1.5899884532372393,-1.0856250383262762,-0.0007324672364812386,0.0000000000000006176775378295601,0.0000000000000008443218793108444,-0.0002599198779110203
0.56,-1.5783935355436147,-1.0833014872425057,-0.0007431881966976275,-0.0000000000000015678914664983242,0.000000000000003222131452285539,-0.00026022885442087773
0.5666666666666667,-1.5667714420071897,-1.0709469010445354,-0.0007540403817110133,-0.0000000000000015728486073113717,0.0000000000000034054359634710885,-0.0002604447893996721
0.5733333333333334,-1.5551337411857304,-1.0528314181059162,-0.0007649679300838836,-0.0000000000000003254644260050557,0.0000000000000023284201872815045,-0.00026060728994752855
0.58,-1.5436357916641528,-1.0174005578457224,-0.0007759306215510219,0.0000000000000030975632438394357,0.0000000000000023422271589338998,-0.0002606300114055549
0.5866666666666667,-1.5322332907092167,-0.9755128708481143,-0.0007868535719240371,0.0000000000000053738483157658615,0.0000000000000022790624186336526,-0.0002606101617400181
0.5933333333333334,-1.5210928425292487,-0.9169931923708934,-0.0007976544125183495,0.000000000000003964803965283832,0.000000000000001836919230619206,-0.00026048422239067484
0.6,-1.510313142106322,-0.8429775079618219,-0.0008081796471304389,0.0000000000000023548050079666386,0.0000000000000023621698781415604,-0.0002602939685301212
0.6066666666666667,-1.499897232502456,-0.7533351021661605,-0.0008184269509056654,0.0000000000000005421563055360491,0.0000000000000038629747430228705,-0.000260038857637877
0.6133333333333333,-1.4904738036435285,-0.6276938810300973,-0.000827777756932492,0.000000000000000024755743893443616,0.0000000000000027201293599855946,-0.00025973547274405303
0.62,-1.481657379527073,-0.4800356567970394,-0.0008365802617578396,0.00000000000000029953353749507584,-0.000000000000000039581887814226767,-0.0002594025632997061
0.6266666666666667,-1.4733295309140886,-0.3120231423262875,-0.0008449382516930851,-0.00000000000000036038235430389594,-0.000000000000001175559755585699,-0.0002590466624273746
0.6333333333333333,-1.4657269589801696,-0.11379525290641573,-0.0008526363716983033,-0.0000000000000024078248971012285,0.00000000000000009884919544262607,-0.0002586566314228175
0.64,-1.4581243870462504,0.08443263651345939,-0.0008603344917035215,-0.000000000000004455267439898595,0.0000000000000013732581464709728,-0.00025826660041826046
0.6466666666666666,-1.445833600627193,0.16051283337364497,-0.0008729320878338036,-0.000000000000004387999322449584,0.00000000000000020302535314286377,-0.00025748446077548113
0.6533333333333333,-1.4322133155803414,0.2070533198841381,-0.0008869820018907432,-0.0000000000000014762050439966463,-0.000000000000001437890856683923,-0.00025652757315742283
0.66,-1.4179157147246726,0.24523751111552922,-0.0009018543694194099,0.000000000000005831041732242928,-0.000000000000003026470586214892,-0.0002553982481023509
0.6666666666666666,-1.402699694452723,0.276563908095504,-0.0009178784786722593,0.0000000000000024512760536069866,0.0000000000000019902499600153705,-0.0002539823025630579
0.6733333333333333,-1.3869751969151485,0.3042471017647185,-0.0009345883367000577,0.00000000000000197216353125016,0.0000000000000012124237556265672,-0.0002523565933521334
0.68,-1.3707643130952711,0.32903614787048074,-0.0009519728772518145,0.0000000000000025124572754076426,-0.0000000000000014703480945141341,-0.0002504987879268042
0.6866666666666666,-1.3540731769127399,0.3513986488557481,-0.0009700377161278189,0.0000000000000035023601341206106,-0.0000000000000025354458221700875,-0.00024838618765143504
0.6933333333333334,-1.3368880283630196,0.3713678443906743,-0.000988813352234095,0.000000000000005769464204290716,-0.0000000000000009564223378554775,-0.0002459948883144701
0.7,-1.3192949980206639,0.38998058499521876,-0.001008221964028274,0.000000000000004838928683107937,0.0000000000000020088533660292667,-0.00024331612593860206
0.7066666666666667,-1.301158447575201,0.4067653501068981,-0.0010284160789404506,0.0000000000000009515078162819723,-0.0000000000000011132682836781132,-0.0002402894850925578
0.7133333333333334,-1.2825229335343469,0.4225317609504037,-0.0010493525175208696,0.0000000000000029220054370637433,0.0000000000000005398224179972085,-0.0002369080570932502
0.72,-1.2634609072327996,0.4374917814070098,-0.001070956706955503,0.000000000000002305847299565571,0.00000000000000040717663963499806,-0.00023317157136886098
0.7266666666666667,-1.2439714651547906,0.45135311666997113,-0.001093214637457088,-0.0000000000000008949061209586601,0.0000000000000006304857129974839,-0.00022905562666408554
