# n,energy,berry,bcd_x,bcd_y,qmd_x,qmd_y
0.0000015,-3.026544845714275,-0.0000000000000026380957447732325,0,0,0,0
0.006688963210702341,-3.0026115428083733,-0.0000001963538609031924,-0.000000000000000000006432755162890021,0.000000000000000000000039357546194130535,0.0000000000000000000008631449082494526,-0.0000000000000000000058844712734681345
0.013377926421404682,-2.978884034828418,-0.0000013202756459484824,0.000000000000000000016716950209351885,0.00000000000000000000591478307603614,-0.000000000000000000002640601397777075,-0.0000000000000000000151799411334767
0.020066889632107024,-2.955369576921065,-0.000004360614684543484,0.00000000000000000005395107553894621,-0.0000000000000000000065954121192386595,0.00000000000000000001938269904540495,-0.00000000000000000007787903260901474
0.026755852842809364,-2.9319674434322116,-0.000010275210498547237,-0.00000000000000000016894059538905478,-0.00000000000000000010695893423913405,0.00000000000000000010314780318897069,0.000000000000000000022166250585293986
0.033444816053511704,-2.9088659660297878,-0.000020638714607968585,-0.00000000000000000007139505401640367,0.00000000000000000015127111902681192,-0.00000000000000000019064582477968344,-0.00000000000000000009126471656092823
0.04013377926421405,-2.885975602775992,-0.000037554332631049413,0.000000000000000000009684513935628973,0.00000000000000000018744903398086255,0.0000000000000000003615849851791946,-0.00000000000000000009582611518072972
0.046822742474916385,-2.863324550859018,-0.00006206096839698806,0.00000000000000000015110173845054606,0.00000000000000000006329710845887209,0.00000000000000000004610033524358717,-0.00000000000000000011201929888836055
0.05351170568561873,-2.840845013600968,-0.00009675487298807015,0.0000000000000000006787568332463234,-0.0000000000000000005874020309395075,-0.0000000000000000000288329706610805,-0.00000000000000000034525302719340294
0.06020066889632107,-2.818563601537666,-0.0001437863368220451,-0.0000000000000000005972686010148843,-0.0000000000000000016377404297272421,0.0000000000000000002704618277924691,0.0000000000000000003013087415799813
0.06688963210702341,-2.796451390397802,-0.00020607184572350967,-0.0000000000000000017978656521600915,-0.000000000000000004742323966151099,-0.000000000000000001057426587895894,-0.00000000000000000012103713995278436
0.07357859531772576,-2.7745556655637738,-0.0002865038462796446,-0.000000000000000001395008275059793,-0.0000000000000000033328302516920384,0.0000000000000000028783663217228575,-0.0000000000000000003097381776269413
0.0802675585284281,-2.7528558215464733,-0.00038694397786424433,-0.000000000000000002728481614372601,-0.000000000000000000982208922352241,0.0000000000000000006484703744701155,0.0000000000000000003037396650748167
0.08695652173913043,-2.7314154647328115,-0.000515163644568851,0.000000000000000009068672640295637,0.000000000000000006174181756327204,0.000000000000000003595060642879496,0.000000000000000000473153856585523
0.09364548494983277,-2.710094326754431,-0.0006714014450232692,-0.0000000000000000019825564017513796,-0.000000000000000013134105628905081,0.0000000000000000053372117627240125,0.00000000000000000020856297741055845
0.10033444816053512,-2.6890323839779895,-0.0008676104953688561,-0.000000000000000006083443111400162,-0.0000000000000000006363841826852598,0.000000000000000001198019885518613,0.000000000000000002807326071741582
0.10702341137123746,-2.6681430535828596,-0.0011033705436085187,-0.000000000000000010065743159422981,-0.0000000000000000023981633077371968,0.0000000000000000053445323464068596,-0.0000000000000000011632246087616983
0.11371237458193979,-2.6474790143560454,-0.0013872288969347215,0.000000000000000003409340878912964,-0.000000000000000009027764398773323,0.000000000000000007492229460133123,-0.000000000000000008417242036093458
0.12040133779264214,-2.6271027255097565,-0.0017242650140531846,0.000000000000000014340796061108298,-0.000000000000000014110622943480562,-0.0000000000000000012820383602672393,-0.000000000000000007292826744237469
0.12709030100334448,-2.606804708698667,-0.0021277558386426244,0.000000000000000005344843344057588,-0.000000000000000005259941921692471,-0.000000000000000008518348122417363,0.0000000000000000026399874814321523
0.13377926421404682,-2.5866940472206057,-0.002604984989322825,0.00000000000000000852703544349865,-0.000000000000000029713586029381373,0.000000000000000008345410134770918,0.000000000000000007504571089102223
0.14046822742474915,-2.566795824923128,-0.003162569479704134,-0.000000000000000010564547306295875,-0.000000000000000015564674348620464,0.0000000000000000037286664431788985,0.000000000000000011140967853942295
0.14715719063545152,-2.5471405503976157,-0.0038193220701062216,-0.00000000000000000034963797813213475,0.00000000000000003562862787683921,0.0000000000000000023409479357495096,0.00000000000000001630755787878388
0.15384615384615385,-2.527730026422122,-0.004589651427884926,0.0000000000000000139076903653399,0.000000000000000026366142730011652,0.000000000000000020760140966356975,0.000000000000000017058526488798806
0.1605351170568562,-2.5085456257834085,-0.005490870434272159,0.00000000000000002436149966847311,0.000000000000000044010065622584723,-0.00000000000000001510406833264783,0.000000000000000012605291540655567
0.16722408026755853,-2.4895538270930544,-0.006526072644098071,0.000000000000000019909105672477468,-0.0000000000000000607491275925564,-0.000000000000000039850808840016553,-0.000000000000000010485494590886023
0.17391304347826086,-2.4707078315163566,-0.00772421597140076,-0.00000000000000003914894635449709,-0.000000000000000050227063633337034,-0.000000000000000039009246688163463,0.00000000000000000882521104102361
0.1806020066889632,-2.452107323852539,-0.009126769523425086,0.00000000000000000026358235050504596,0.0000000000000000579911971070392,-0.000000000000000021987995879456645,0.0000000000000000008032742303301492
0.18729096989966554,-2.4338012568984624,-0.010721571165441191,-0.00000000000000005057553201158699,-0.00000000000000009464733877790527,0.000000000000000021732585432954278,0.0000000000000000052529472347685516
0.1939799331103679,-2.4157024989671108,-0.01255611489968246,-0.00000000000000004798484269566007,-0.000000000000000005375854835088475,0.000000000000000033155488219551036,0.0000000000000000342232605335192
0.20066889632107024,-2.3978412159008315,-0.014731532859149432,-0.000000000000000029636330258236484,0.000000000000000015691301542052943,-0.00000000000000004681784725762602,-0.000000000000000027144328917037962
0.20735785953177258,-2.3800858970716163,-0.017231258743510114,-0.000000000000000009439255212336239,-0.00000000000000005821384196969781,-0.000000000000000051873074328210127,-0.0000000000000000013662073101438259
0.2140468227424749,-2.362789023264857,-0.020101954845258747,-0.00000000000000007671486956150564,-0.0000000000000000840839242327327,-0.00000000000000015114301047544455,0.00000000000000003217710596798395
0.22073578595317725,-2.3457134874994825,-0.023445524292970796,-0.00000000000000009330721067847875,-0.00000000000000006712297441404555,-0.000000000000000020099397293651028,0.0000000000000000954267591156477
0.22742474916387959,-2.328835038806459,-0.027307437373423026,-0.00000000000000004801537399628989,-0.00000000000000002528897152692255,0.00000000000000012637066869151277,0.00000000000000004541370461605963
0.23411371237458195,-2.3122600019790647,-0.031726580130851556,-0.00027358926374942304,0.00000000000000005832673726557287,0.00000000000000007869579669775345,-0.00013200884915232764
0.2408026755852843,-2.2960456382660133,-0.0367850206996139,-0.0011796006009134336,0.0000000000000002028928579075501,-0.000000000000000007292118413528326,-0.0005703423427447426
0.24749163879598662,-2.2800885119446876,-0.04289190161018062,-0.0007618484131166913,0.00000000000000007604536945749517,-0.000000000000000053501238071122913,-0.0003880504366430432
0.25418060200668896,-2.2644736429886985,-0.05009217509711546,-0.0006237204140741888,-0.0000000000000002371387010698104,-0.00000000000000002190149259065752,-0.00033320441041481425
0.2608695652173913,-2.249229547241008,-0.058554271397436734,-0.0005729855039141605,-0.0000000000000004441183872521902,0.00000000000000007287713894860822,-0.00031751193211204627
0.26755852842809363,-2.2344074426015905,-0.06881630015618516,-0.000546046154333738,-0.0000000000000004220665985468788,0.00000000000000010297151254931526,-0.0003152906475366719
0.27424749163879597,-2.2201603162058077,-0.08213134622404314,-0.000523205196370972,-0.000000000000000047470735433297063,-0.00000000000000018437990466656444,-0.0003248015324220365
0.2809364548494983,-2.2102817697375916,-0.12802578707585888,-0.00036524152033616346,0.00000000000000011675407890106398,-0.00000000000000005487093043440238,-0.0004454003256116875
0.28762541806020064,-2.201120181112969,-0.17926705756503628,-0.00018510192119230415,0.00000000000000024645344652548646,0.00000000000000014305188360101068,-0.0005842305231724947
0.29431438127090304,-2.193400617972155,-0.23679481844787045,-0.00002535911063007529,0.0000000000000003291483534384162,0.00000000000000012969226942917436,-0.0007095566710205677
0.3010033444816054,-2.186278978086321,-0.2969292175911105,0.00012592634993604756,0.00000000000000039235327181593203,0.00000000000000002872624426650489,-0.0008292834827609818
0.3076923076923077,-2.1791573382004876,-0.3570636167343506,0.00027721181050217045,0.0000000000000004555581901934478,-0.00000000000000007223978089616458,-0.0009490102945013958
0.31438127090301005,-2.1710149546074,-0.4138067487725159,0.00046370365690381654,0.000000000000000028130454762243725,0.0000000000000002526666084043275,-0.0010979485104907678
0.3210702341137124,-2.1628054526437674,-0.4703268901416641,0.0006525104774103885,-0.0000000000000004315585270776225,0.0000000000000006055759746673034,-0.0012488075042822342
0.3277591973244147,-2.1536011866145737,-0.5213045939092867,0.0008735473028636158,-0.0000000000000006665321319599338,0.0000000000000006462609877698111,-0.0014261446393069534
0.33444816053511706,-2.1435378049011127,-0.5674956399784814,0.0011224191735423983,-0.0000000000000007074330802961514,0.00000000000000041729729913846675,-0.0016263492935869768
0.3411371237458194,-2.132885615204377,-0.6106878618854461,0.0013967392905751995,-0.00000000000000044268674970794303,0.0000000000000001162096095487354,-0.0018472154161436663
0.34782608695652173,-2.1218023218688793,-0.6516844545803996,0.001689691681481569,0.00000000000000004584332339859576,-0.00000000000000023768463181747774,-0.0020832091089936257
0.35451505016722407,-2.110015891524694,-0.6898829542502899,0.0020170652282289975,0.00000000000000011653483205833402,-0.0000000000000001787547045817381,-0.002347135619898604
0.3612040133779264,-2.0979597484880452,-0.7269277094161574,0.002358467582026776,0.000000000000000047739358001175424,-0.00000000000000008759202905758073,-0.00262245747703442
0.36789297658862874,-2.0853830404304703,-0.7614462450001797,0.002730018766780659,-0.00000000000000021289291788111257,-0.0000000000000004036647492529077,-0.0029223070406547845
0.3745819397993311,-2.072501764475825,-0.7944311775151724,0.003121274822648726,0.0000000000000005097135813568364,-0.0000000000000006080700182229458,-0.0032380041150388184
0.38127090301003347,-2.0593751239859346,-0.8261497870209781,0.0035287853520623203,0.0000000000000017506094201657416,-0.0000000000000007314538174912614,-0.0035666681048613065
0.3879598662207358,-2.045924953260754,-0.8558719691486192,0.003961754612578088,0.0000000000000007732317874758483,-0.0000000000000008427365061724657,-0.003914548403804776
0.39464882943143814,-2.0322498695131426,-0.8843282946017021,0.004409897408013506,0.0000000000000002191400195820386,-0.0000000000000007410078918936233,-0.0042743130872240935
0.4013377926421405,-2.0183770219826496,-0.9116553147184431,0.004871402480787834,-0.000000000000000055077194977901257,-0.0000000000000005527455439606982,-0.004644269313110514
0.4080267558528428,-2.0042617922458534,-0.9375463798599419,0.005349349468813683,-0.00000000000000028090037706311963,-0.0000000000000005800135318986805,-0.005025892158090587
0.41471571906354515,-1.989909556085372,-0.9619268749787198,0.005839728504004327,0.0000000000000001501898379475777,-0.0000000000000006342244043418483,-0.005416394943153394
0.4214046822742475,-1.9753345090486527,-0.9853044427311797,0.006339245851754548,0.0000000000000004002002564910045,-0.0000000000000004470301071065334,-0.00581287049820334
0.4280936454849498,-1.9605248234897608,-1.007699153683906,0.0068468862597443345,0.0000000000000001678951420527254,0.00000000000000011048817995902877,-0.006214113790293951
0.43478260869565216,-1.9455565282853848,-1.0284208584392998,0.007355893916532225,0.00000000000000006182025999471028,0.000000000000000950146492241926,-0.0066135248953746876
0.4414715719063545,-1.9305448990082477,-1.0478067000154128,0.007857480165916251,0.00000000000000016532967555473217,0.0000000000000003740690776291423,-0.007003906274908757
0.44816053511705684,-1.91539223262526,-1.0659518172269227,0.008352618381422122,-0.00000000000000011701509027372598,-0.0000000000000002107549881860724,-0.007385724544096309
0.45484949832775917,-1.9000530662482673,-1.0827701818847641,0.008839656841770937,-0.0000000000000006117495927348415,-0.00000000000000018218620877077034,-0.007756920060908805
0.46153846153846156,-1.8845434938315262,-1.0979733889492223,0.009311567121786123,0.0000000000000004558342071997587,0.0000000000000004497044712110909,-0.00811011293609763
0.4682274247491639,-1.8690461971121979,-1.1115150213758733,0.009749819631439397,0.00000000000000080409137028544,0.0000000000000000233287644809987,-0.008428744006502249
0.47491638795986624,-1.8534866417751958,-1.123540394816761,0.010159653326883783,0.00000000000000020075182929614085,0.000000000000000432826466635216,-0.008716070321155097
0.4816053511705686,-1.8377788264946102,-1.1338626439838173,0.010539817587726801,-0.0000000000000007595206638749678,0.0000000000000008428794056227042,-0.008968704168678331
0.4882943143812709,-1.821895959021615,-1.1423600292308547,0.01088622177719264,-0.0000000000000013159930013823158,0.00000000000000021728010333967551,-0.009180405847792212
0.49498327759197325,-1.8061531181925183,-1.1492672627778397,0.011179535922910233,-0.000000000000001039539837571985,-0.0000000000000006097420668378711,-0.009330042338918825
0.5016722408026756,-1.7902616458266356,-1.1536946734584446,0.011428126054675,-0.000000000000001569443367476323,0.0000000000000015300360954659516,-0.00941238319436353
0.5083612040133779,-1.7743713913586052,-1.1557633562283995,0.011643905122919887,-0.00000000000000026524233288054346,0.0000000000000010101595131053834,-0.009428345598556556
0.5150501672240803,-1.758507170990366,-1.1555828733155384,0.011856466378594258,0.0000000000000006557700610899857,-0.00000000000000029012690039259113,-0.009380164877304432
0.5217391304347826,-1.742644359897787,-1.1531292399553017,0.012133039582913903,-0.0000000000000006446637037280269,-0.00000000000000009923640822498475,-0.009282409079461009
0.5284280936454849,-1.7266756410400856,-1.1473156664996353,0.012676806704756302,-0.0000000000000008402155098351751,-0.0000000000000007767198011499688,-0.00918144886638327
0.5351170568561873,-1.7108298367414836,-1.138387539134125,0.015595491222606197,-0.0000000000000009821025618756042,0.00000000000000037118191905993743,-0.009913587603482868
0.5418060200668896,-1.694986798158745,-1.1258954414985693,0.007173397707290349,-0.0000000000000014321053417082086,0.00000000000000006838676771691585,-0.005024738335854332
0.5484949832775919,-1.6792195642993664,-1.1097933952874939,-0.0011161436148022532,-0.0000000000000013379224089262256,-0.000000000000000609333934225647,-0.0005166402928050819
0.5551839464882943,-1.6635568881592566,-1.089971958053441,-0.0011387595447110124,-0.00000000000000025398451090035117,-0.0000000000000006549301265678771,-0.0005170322627253161
0.5618729096989966,-1.6478590188447582,-1.0648909291976143,-0.001161491984444354,0.000000000000000931536599612921,-0.0000000000000006486287547120835,-0.0005169683520139699
0.568561872909699,-1.6324004397490308,-1.0340602237791827,-0.0011839801748140307,0.000000000000003348185622412232,0.000000000000001790413858759051,-0.0005164410307700483
0.5752508361204013,-1.6170009500958695,-0.9977895627179099,-0.0012064223812905347,0.0000000000000028313137314121466,0.0000000000000006000283535587948,-0.0005155311839095836
0.5819397993311036,-1.6017244421883658,-0.9556105387089575,-0.001228704103671002,0.0000000000000010560782364083083,-0.0000000000000012353518199973734,-0.0005142457649727544
0.5886287625418061,-1.5866483881593731,-0.9072284623536452,-0.001250697125786295,0.0000000000000002295363988539197,0.000000000000000045700872082040346,-0.0005126052634516824
0.5953177257525084,-1.5717055319339306,-0.8474891688307649,-0.0012725144217276038,-0.000000000000003697109514913638,0.00000000000000013108417502356223,-0.0005104834645189257
0.6020066889632107,-1.5570363772868812,-0.778035320630081,-0.0012939063685234076,-0.000000000000003951297866154797,-0.00000000000000010721431789700577,-0.0005080307284600696
0.6086956521739131,-1.542639701404156,-0.6988842765844556,-0.0013148677352935569,-0.000000000000002618521800390233,-0.0000000000000002888387656325586,-0.0005052951606562029
0.6153846153846154,-1.5285312665468864,-0.6094571480345373,-0.0013353687046905058,-0.0000000000000010313879621139945,-0.00000000000000014966005286163422,-0.0005022924990097925
0.6220735785953178,-1.5150809528232607,-0.4993356511527222,-0.001354827943923723,-0.0000000000000025138811250133837,-0.0000000000000012846714014923175,-0.0004989675520990164
0.6287625418060201,-1.5019900510978177,-0.3732742495785895,-0.0013737110731710763,-0.000000000000002928889591882915,-0.00000000000000181299101262284,-0.0004954902658725913
0.6354515050167224,-1.4892382358649672,-0.2318788347528573,-0.0013920502137663101,-0.0000000000000021619491895225992,-0.0000000000000016859330917929526,-0.0004918707634186233
0.6421404682274248,-1.4777570006187462,-0.04876227041008935,-0.0014084389936138047,-0.0000000000000015002644035731706,-0.0000000000000013190428401510056,-0.0004882257338865331
0.6488294314381271,-1.4668901735134166,0.15603528485448326,-0.0014239162297573647,-0.0000000000000005569374714766027,-0.0000000000000008364253197627353,-0.0004846836740276258
0.6555183946488294,-1.457918360653161,0.42824393252302817,-0.0014365933346601849,0.0000000000000013744140471211127,0.0000000000000000030401600211380376,-0.0004815005920233239
0.6622073578595318,-1.4488922257115044,0.7001250907064492,-0.0014493422727377813,0.0000000000000032188339309326095,0.0000000000000007961828689228847,-0.0004782876585453081
0.6688963210702341,-1.437938723029244,0.9603867996210318,-0.0014646398786903722,0.0000000000000019788869384333276,-0.0000000000000000542236373618289,-0.00047401558362863484
0.6755852842809364,-1.4263130875878336,1.2046948472331793,-0.0014808160772203007,0.00000000000000006577736495484317,-0.0000000000000002274178644476209,-0.0004693705150999187
0.6822742474916388,-1.4124033002075926,1.3947865426450718,-0.0014999780533539065,-0.000000000000004134983857040904,0.0000000000000019008019066302912,-0.00046345787841517823
0.6889632107023411,-1.3957580676591994,1.4855780084466914,-0.0015225963452947596,-0.000000000000002465992052368863,0.000000000000001180199014600367,-0.0004558965758256428
0.6956521739130435,-1.3780607691746667,1.5483781315938032,-0.001546277434310598,-0.0000000000000032518337892479615,0.0000000000000006307832386448834,-0.0004473487876228237
0.7023411371237458,-1.3597430496706042,1.605891935645892,-0.0015703354456169404,-0.0000000000000012828228952172532,-0.000000000000000039256101354361745,-0.00043794055605034075
0.7090301003344481,-1.3408656402827566,1.6590870490012644,-0.0015945840458329447,0.0000000000000004202955001582212,0.0000000000000010797784068484757,-0.0004276496776663766
0.7157190635451505,-1.321492419207313,1.7090403005651416,-0.0016188360085232056,-0.0000000000000011164162948366884,0.0000000000000016288744947449526,-0.0004164690067659782
