# n,energy,berry,bcd_x,bcd_y,qmd_x,qmd_y
0.0000013333333333333334,-3.349994151348391,-0.00000000000000003000961478814343,0,0,0,0
0.006666666666666667,-3.3020106465029717,-0.0000038961857028323395,0.00000000009061990639658681,0.000000001568344650714259,-0.0000000007013533178684004,0.000000000024468936695169363
0.013333333333333334,-3.25472091145255,-0.000029819394155597375,-0.0000000004095753725487648,0.00000000757838055886769,-0.000000003925182514297725,0.0000000004424956184037637
0.02,-3.2080404580341044,-0.0001009903898014711,-0.0000000014244663102155062,0.000000019929593248834523,-0.00000001064857424492426,0.0000000008852976181494423
0.02666666666666667,-3.16213244446417,-0.0002431168369152272,-0.0000000040228362461267745,0.0000000397119840568853,-0.000000021619032927382364,0.000000002156944476440079
0.03333333333333333,-3.116792506597734,-0.00048463053867956466,-0.00000000949602479683819,0.00000006767731754549673,-0.00000003754792134655851,0.000000005044055849240358
0.04,-3.07217789722859,-0.0008565323854858656,-0.000000011816569290983802,0.00000011644180624814041,-0.00000006104304758802186,0.00000000660892702313845
0.04666666666666667,-3.0281540107320533,-0.00139386409787053,-0.000000021461169663815254,0.00000016372360712434946,-0.00000008719618511808894,0.000000010377689899477888
0.05333333333333334,-2.984789025784802,-0.002134306551579186,-0.00000002603984875680454,0.00000024286786121856777,-0.0000001254728135412843,0.00000001513000394630962
0.06,-2.942112215729103,-0.0031201422050278977,-0.0000000392486684546315,0.00000032598191703398823,-0.00000016829423603171031,0.000000020572385214152777
0.06666666666666667,-2.900004081879786,-0.004396300298584121,-0.000000058710788338403513,0.00000041959982153630946,-0.00000020971434096577777,0.000000029410086210209924
0.07333333333333333,-2.858472442440159,-0.006016796111109639,-0.0000000710049460590746,0.0000005441891931320863,-0.00000026576852315827167,0.00000003425712239373935
0.08,-2.8178039353224875,-0.008029085764585692,-0.00000009078764369563223,0.0000006851213674778556,-0.0000003380128551131792,0.000000041392676810127584
0.08666666666666667,-2.777486661975518,-0.010501184510252056,-0.00000009982331913932799,0.0000008844811731096554,-0.0000004210087789515936,0.00000004698974171165684
0.09333333333333334,-2.73777187086924,-0.013498464013744023,-0.00000012234054362041294,0.0000010918560700150073,-0.000000505180114497018,0.00000005462749112712465
0.1,-2.6988224939193874,-0.01711865802957101,-0.00000016330897208003763,0.000001308493764837284,-0.0000005941481488913337,0.0000000691488751748173
0.10666666666666667,-2.6604545163473015,-0.02144337122079625,-0.00000018874522756145623,0.000001574395488248119,-0.0000007085358607058806,0.00000007517443375560759
0.11333333333333333,-2.634802048440094,-0.024791545120105563,-0.0000002286421684940476,0.000001766256680027415,-0.0000007882409227858064,0.0000000896112387500176
0.12,-2.613640739575521,-0.02789859963268471,-0.00000025480149822264437,0.000001921242541763979,-0.0000008447106311305758,0.00000009213444406573565
0.12666666666666668,-2.59276765421501,-0.03128194662703871,-0.00000030157612675956764,0.0000020758643555977133,-0.0000009030821636578212,0.00000010810294000475997
0.13333333333333333,-2.5719997755872064,-0.03496590696218381,-0.00000035149262106700185,0.000002253548671609228,-0.0000009666949194459458,0.00000012476822284403898
0.14,-2.551387001248349,-0.03900703118448705,-0.0000003695502251359001,0.0000025044646271585193,-0.0000010577362515724456,0.00000012509176129039722
0.14666666666666667,-2.5310158625286614,-0.043405047785763706,-0.0000003673540298346725,0.000002770189552994723,-0.0000011435991158472314,0.0000001192565134788817
0.15333333333333332,-2.5108313347431146,-0.04817359925086921,-0.00000040557510819639396,0.0000030239240339487292,-0.0000012201933602001258,0.00000012888938518229984
0.16,-2.4907807075852677,-0.0533684547159283,-0.00000047504380526131404,0.0000032694194016815426,-0.0000012995094893731443,0.00000014665855175763802
0.16666666666666666,-2.4708433356544037,-0.059010159058104195,-0.0000005295110639232584,0.0000035126416825281084,-0.0000013740433287043233,0.00000015610689882386557
0.17333333333333334,-2.450997592779714,-0.06510347252776838,-0.0000005831409121804785,0.0000038208362493192395,-0.0000014584271707773753,0.00000016261623269144078
0.18,-2.431504480670003,-0.07170282303859397,-0.0000006030643930794741,0.000004215501822208218,-0.0000015674103854958113,0.00000015409025597735828
0.18666666666666668,-2.412233782098203,-0.07888811578314842,-0.0000006840595143898773,0.000004540241174008915,-0.0000016450224774531754,0.0000001814896489792027
0.19333333333333333,-2.3930187461393224,-0.08667650987545672,-0.0000007506656688948227,0.000004813242149212278,-0.0000017063363390283162,0.00000017836767430571252
0.2,-2.373953005815228,-0.09517465870516127,-0.0000008198943783976444,0.000005247603280494288,-0.000001797506725926061,0.0000001973644715823137
0.20666666666666667,-2.3551393067770228,-0.10434137212527145,-0.0000008865294879801743,0.000005712453587526714,-0.0000019052887059135083,0.00000019768463973612897
0.21333333333333335,-2.336483850416959,-0.11424310592562041,-0.000000978318925642968,0.000006057270851779789,-0.0000019655525140074744,0.00000020014460272462306
0.22,-2.3179441932528904,-0.12495347171058564,-0.0000010693296734433913,0.0000064273906732183854,-0.00000201609895021584,0.0000002049869602069632
0.22666666666666666,-2.2995760622363237,-0.13650610928141044,-0.0000011190997301562038,0.000007020714626198691,-0.0000021244733488204035,0.0000001940188600567681
0.23333333333333334,-2.2814678095541443,-0.14898250896636733,-0.0000012119644860495846,0.00000741170690972381,-0.0000021398769088881845,0.00000019927118024340866
0.24,-2.263400977720027,-0.16271990085633364,-0.0000014003596589860427,0.000007722990116823087,-0.0000021170522041186196,0.00000022066037426786766
0.24666666666666667,-2.2456143171136254,-0.17754972173399325,-0.0000014260761755935332,0.000008383093354223885,-0.0000022097258578215664,0.00000018900495588747963
0.25333333333333335,-2.228094134554789,-0.19354085983954789,-0.0000015608271706095194,0.000008887568203981883,-0.000002230724914359619,0.00000018954960050341834
0.26,-2.2107400831057533,-0.21079374124224382,-0.0000017748155816862555,0.000009193127756742604,-0.000002152857953360451,0.00000020891688147814606
0.26666666666666666,-2.1933932377575593,-0.22948375818857916,-0.0000017539935926936369,0.0000096911698753109,-0.0000020988867521847922,0.00000014123718552558457
0.2733333333333333,-2.1765086961034914,-0.2501234514441389,-0.0000020105619354922417,0.00000988484798405769,-0.0000019069209462683088,0.00000016691304726793332
0.28,-2.1596882558412562,-0.27256922276817247,-0.0000021817415731537654,0.000010138012182355234,-0.000001724060096390762,0.00000013921984154136523
0.2866666666666667,-2.1430851037340077,-0.2967997304420164,-0.0000022450867275907027,0.000010512106502863122,-0.0000015355654754360142,0.00000006495672674998824
0.29333333333333333,-2.126778756377804,-0.3227680083486384,0.0011875232534710378,0.00001113126417976642,-0.0000013671834375482831,-0.00042435839839234353
0.3,-2.1106748114747913,-0.35186407920598683,0.01913215573903065,0.000013218761599695598,-0.0000016846602301385192,-0.0068243748691450236
0.30666666666666664,-2.0948026786207774,-0.38366885236694526,0.035647801471095544,0.021998449247781042,-0.009782091107191417,-0.015051707976035146
0.31333333333333335,-2.0791708382922707,-0.4179758486466397,0.04506597395012227,0.04136065872999482,-0.01873521275985081,-0.020793985819015155
0.32,-2.0638384888946573,-0.45515603305053787,0.041126356756309906,0.03704019615943697,-0.017848370557391812,-0.019920940986829377
0.32666666666666666,-2.048778362884233,-0.4976638723520738,0.03858326085135986,0.034674521102053844,-0.016862737165636327,-0.0187868471117534
0.3333333333333333,-2.06728318758075,-0.3306481426133986,1.0363149314865203,-1.840397180654045,8.540805115332876,-4.86696223665822
0.34,-2.0435995794483732,-1.0229467337339155,3.0452195852544452,-5.558562663567687,16.76020561164668,-9.001460260878122
0.3466666666666667,-2.022438148087429,-1.6060304933347533,-23.812881958183667,47.21310378215434,22.115924654247994,-11.350112406156324
0.35333333333333333,-2.004278066264391,-0.10460508146664634,-2.4219251202395577,4.432316307409865,7.4918869060642415,-4.097022369192172
0.36,-1.9851719471686504,0.07474882064647503,-0.7449662496607024,1.61002298665978,4.235506917874523,-1.7022662146666234
0.36666666666666664,-1.965352310134244,0.15891990643719736,-0.3326992868906073,0.698874395047584,1.8692277089019096,-0.6069846034364497
0.37333333333333335,-1.9436414983051633,0.22026045235449962,-0.16333824610747216,0.31675220349926725,0.6613171026712649,-0.21772540395738765
0.38,-1.9182009019671278,0.2772035488708089,-0.0578905634557609,0.10983260226311257,-0.061425436068389044,0.08551437025576682
0.38666666666666666,-1.8957512736531736,0.32461181216491186,-0.013063451041716686,0.02561544528977598,-0.510793073896911,0.30957704127103736
0.3933333333333333,-1.8783276690744484,0.358023602288232,-0.008850058828231191,0.016212916241583497,-0.891391015102309,0.514894465987031
0.4,-1.9163696672816954,-1.5628774554922042,0.0010125777665761105,0.0007838255713979439,-0.0010067717324767,-0.0011915091952182893
0.4066666666666667,-1.908467070975719,-1.7473374208095496,-0.0012872077222729126,-0.0012970945919154207,-0.00043604624045656703,-0.0005617105401457264
0.41333333333333333,-1.8971814850141084,-1.8631158304964768,-0.001123022950027196,-0.0010907484523437494,-0.00036376640904197646,-0.0004666281033504303
0.42,-1.8854980449386278,-1.9734204947079048,-0.000973205528126938,-0.0009052236705615835,-0.0003006431608123735,-0.0003834904641191174
0.4266666666666667,-1.8718315247228579,-2.056441600531882,-0.0008950013085171178,-0.0008234817068696561,-0.00028316035623792395,-0.00035989095709032764
0.43333333333333335,-1.8576924560684536,-2.1324693551685785,-0.0008409522340340961,-0.0007670731525506348,-0.0002730176012362716,-0.00034540007383013086
0.44,-1.8788172034389639,2.477230052374461,0.0016106492120376366,-0.0071010297754179495,-0.08257787454775992,0.012485527427270788
0.44666666666666666,-1.8631405472352218,2.6378458373671716,0.0013422919006804551,-0.007680102264867841,-0.08445824264356576,0.01094684491470807
0.4533333333333333,-1.8457028567944815,2.8016689677378044,0.0008769167024981276,-0.008302794434578768,-0.08703999971438178,0.009132963791405076
0.46,-1.8263304460969148,2.9739159914339512,0.00010953964786697835,-0.008965490757255855,-0.09071681610446018,0.007031988904179464
0.4666666666666667,-1.804811539747527,3.1606421726407494,-0.0011034916776930439,-0.009701993516511267,-0.09625283317281047,0.004769787799566542
0.47333333333333333,-1.780862676940558,3.3683959635776066,-0.003026221908888337,-0.010658022663626256,-0.10506586393318425,0.0023125559590699584
0.48,-1.756893778742849,3.5649855251308136,-0.005403337532521071,-0.011653348659877535,-0.12517866166113092,0.00153726058213923
0.4866666666666667,-1.7367220114284079,3.7135249817985945,-0.008097568238017694,-0.011853752901480857,-0.1447566290633095,0.0025282476607995383
0.49333333333333335,-1.7183171784514566,3.853533188329848,-0.0115382099661994,-0.011369205006932576,-0.15512947718485318,0.0027258011794057406
0.5,-1.6999812635727856,4.011127818251969,-0.018139711069112018,-0.01080449073605419,-0.14845531320182176,0.00433313303619552
0.5066666666666667,-1.6817259081777796,4.189152809287471,-0.030576584819816822,-0.010646126985405359,-0.11259247640088363,0.010378421237852348
0.5133333333333333,-1.6636287356150923,4.391718652195202,-0.03688426005682447,-0.008807928829918989,-0.11569876956521583,0.0008362717462937833
0.52,-1.6456608000780726,4.627047647552203,-0.04388772847180415,-0.015542732238259522,-0.09800057322113769,0.003904530219479995
0.5266666666666666,-1.6278366798682415,4.899071049930641,-0.020162007979153376,-0.0014524420339786445,-0.07332847418583356,0.010105972374380982
0.5333333333333333,-1.6101771993398941,5.2148868531915324,-0.006600253092908426,0.008020931445136291,-0.06334936223804737,0.011968148705139977
0.54,-1.5914071149285498,5.439131515928407,-0.00810110761924803,0.009602245565765829,-0.06522951264132325,0.009837181854455415
0.5466666666666666,-1.570466298969238,5.415950537545104,-0.010666234513972693,0.011519444612049543,-0.06618499560593018,0.007258076459812092
0.5533333333333333,-1.5496752193152272,5.298782479774166,-0.01316184194482466,0.013143875799166347,-0.06566246496362849,0.004643560353609327
0.56,-1.529906038823516,5.175775947111499,-0.015961146933394586,0.014615169272504534,-0.06334015127214174,0.002024532027928557
0.5666666666666667,-1.5110687319537939,5.045366597511254,-0.018873631032777373,0.01587525476907264,-0.058689655681351226,-0.0005536483821604183
0.5733333333333334,-1.4930799662820982,4.905896007359454,-0.02181033058186253,0.016907957749320298,-0.051325622823532,-0.0031866349558004746
0.58,-1.4761573651888704,4.751410133189116,-0.02458779631396525,0.01763196784596429,-0.03912777240382348,-0.0059704278327083315
0.5866666666666667,-1.4601087118271197,4.578908085149222,-0.0269646608326031,0.018030307232893433,-0.018895597983293724,-0.009724658856645294
0.5933333333333334,-1.4449612439541035,4.383663185931512,-0.028990141769434295,0.018117621705973853,0.01767088883826559,-0.015594198895078305
0.6,-1.43069455425433,4.1643396769107275,-0.03069961347282782,0.01791197224680108,0.07377857922194105,-0.024026423471267523
0.6066666666666667,-1.4178673467738663,3.8694260094945747,-0.033350060458689365,0.016376051732744926,0.06756249790589804,0.0033334821607874897
0.6133333333333333,-1.4051166156104649,3.5373867043217264,-0.03838674512822794,0.012960425814277638,1.3599297792736442,2.2650463115314348
0.62,-1.392268633043162,3.1175277791060507,-0.04991682014170703,0.004557403413515968,6.31043532470804,10.789991563135676
0.6266666666666667,-1.3784956866240008,2.790367020571863,-0.04712357920450596,0.005252632621058821,4.920010716249396,7.96245013562408
0.6333333333333333,-1.3641125644827916,2.5307514169669476,-0.036674106806939756,0.010762165072478486,0.29720875809013747,-0.5686739079675024
0.64,-1.3750491673621539,2.5350093771916375,-0.03463095336260178,0.008040396702906641,-0.0349644756020569,-0.02231770545889413
0.6466666666666666,-1.3598789977850232,2.195460357841405,-0.03464691088279294,0.007453246448432063,-0.01365806476897458,-0.022864873678233193
0.6533333333333333,-1.3457441410080988,1.8103740959633199,-0.03446012750723355,0.00726217716086618,0.002055690298388868,-0.02327874169034532
0.66,-1.4230840278404375,3.610518104858616,-1.0211436497912165,-0.1020290409557752,0.2495242863099419,0.18830473265534603
0.6666666666666666,-1.405241695872342,3.7773922112102283,-0.6021718505033986,-0.12523590845232319,0.25157313577293855,0.0719407429103267
0.6733333333333333,-1.3849728178467025,3.9379642381250304,0.05845881615445436,-0.14295762784422023,0.2617566335719918,0.0017312487946603491
0.68,-1.360454731060227,4.020812016695309,0.11614427619958165,-0.1552116019333643,0.2548522681545244,0.7440437335822311
0.6866666666666666,-1.3321980765492363,3.9869579183184976,-0.7179150374012627,-0.14450256694457775,0.2215266237812748,1.4759600645990563
0.6933333333333334,-1.2983956458947696,3.5426187039892807,-0.7513572728512744,-0.1179016724912261,0.1703621303573247,1.128839797449708
0.7,-1.2665473904331264,3.071516301661539,-0.728044207954139,-0.09044126266999727,0.1249706135877191,0.6784311227909943
0.7066666666666667,-1.2376148779589775,2.6663578932742404,-0.799316426403403,-0.0683971467421073,0.09096036827007432,0.34272802163978794
0.7133333333333334,-1.2115321881749468,2.325100221116041,-0.9242717169405873,-0.05212163782228815,0.06717717954959297,0.1371104360065789
0.72,-1.1878562952717413,2.02938707597755,-1.0581995846719152,-0.039984228729454896,0.04984787239216809,0.02032940499793441
0.7266666666666667,-1.1667160296102093,1.76836843498751,-1.1796647608383628,-0.031046071723200022,0.037414898036856985,-0.03262001736116341
0.7333333333333333,-1.14916887128038,1.5194582045762064,-1.2754881782089156,-0.024739740026775574,0.02890464839392916,-0.03177724648573739
0.74,-1.1977176501561986,3.1395135486864354,0.03227381354146842,-0.01818418281541475,0.048853933478738315,-0.02522492908201078
0.7466666666666667,-1.173480428150501,3.1765745813985764,0.026250030526230324,-0.016869630018281997,0.05971724235724863,-0.023974762823299172
0.7533333333333333,-1.1494307968578539,3.180359657912504,0.019794195214067313,-0.015711234668263643,0.06403536826504537,-0.022403197046785072
0.76,-1.125706722671312,3.15475326929241,0.013671353182401487,-0.014738077892959656,0.06349970715789846,-0.02057420272609419
0.7666666666666667,-1.1024527939969075,3.1008702103237646,0.008334842382247359,-0.013919771186924326,0.05971502399934137,-0.01847123799686987
0.7733333333333333,-1.0799028449561137,3.0167410240255994,0.003978768272142247,-0.013187860395597875,0.05405945633066547,-0.016087350470205812
0.78,-1.1204547706300676,1.8164899600001536,-0.0024471939756668614,-0.0021385593585603966,-0.0001985845945779754,-0.0002386357935255125
0.7866666666666666,-1.098258117098971,1.8445198134967822,-0.002478478677865417,-0.0021645022703403937,-0.00017964939803778132,-0.00021814499998077164
0.7933333333333333,-1.075781027248013,1.8716905372195427,-0.002508183962712377,-0.0021885896562008856,-0.00016009814097007335,-0.00019673438101152366
0.8,-1.052615146003856,1.897700047057445,-0.0025356608310213823,-0.002213319878511998,-0.0001393566330220868,-0.00017390930538448504
0.8066666666666666,-1.0290979296823297,1.9231197118344088,-0.0025604187253492265,-0.0022333511577979095,-0.00011715826664557626,-0.00015052626461787032
0.8133333333333334,-1.005016362223907,1.9476729446124679,-0.0025836315086398194,-0.0022510806236687776,-0.00009578246742587085,-0.00012609882121217684
0.82,-0.9806099877559944,1.9717525326824044,-0.0026020425145582343,-0.0022662716304738995,-0.00007336313560395594,-0.00010091600518504256
0.8266666666666667,-0.9556808800909338,1.9952765342545857,-0.0026155738413823418,-0.0022789706889394983,-0.000048818374587110874,-0.00007581904159826964
0.8333333333333334,-0.9301426868238641,2.01884496554186,-0.0026279078512480973,-0.0022868425576778725,-0.00002589922967098178,-0.000049427554244374564
0.84,-0.9042319437121943,2.042186797285204,-0.0026321962138308405,-0.002289389344335453,-0.0000022388182436199204,-0.00002221122146286851
0.8466666666666667,-0.8778688529351315,2.0646189056376416,-0.0026286348666068543,-0.0022869479244196924,0.000023165337084698793,0.000005312403302864804
0.8533333333333334,-0.8509485156304174,2.0874647446519106,-0.002620448729632227,-0.0022778444343164437,0.00004707295079845385,0.00003187252566471838
0.86,-0.8235815547316649,2.110081011713663,-0.0026037109996174977,-0.002261969663237825,0.00007191182897654318,0.000058219513973858644
0.8666666666666667,-0.7956420069410289,2.131898788514507,-0.0025768235001226015,-0.002236300169898171,0.0000946105934336003,0.00008472377873818851
0.8733333333333333,-0.7672739901589476,2.1542026723253174,-0.0025381677346254013,-0.0022020687419081367,0.0001186371293985641,0.0001095550279033729
0.88,-0.7382161411022816,2.1771443625670117,-0.0024882015944561998,-0.002156624281279657,0.00013994959470649748,0.00013417322981966852
0.8866666666666667,-0.7088013183244185,2.1992488930374368,-0.002419470917777432,-0.0020967395984128156,0.00016153676441684272,0.0001557053837374642
0.8933333333333333,-0.6788329442845756,2.2221278180034956,-0.002337861912974239,-0.0020237762999329267,0.00017879753391737826,0.00017731147666898438
0.9,-0.6482054839181353,2.2448627687838902,-0.002236343421854723,-0.0019338857130629704,0.00019446235232465278,0.0001916189678457013
0.9066666666666666,-0.6171505801992231,2.267783306685806,-0.002112380121021639,-0.001824105609358469,0.00020578184380460116,0.00020553411490232369
