# n,energy,berry,bcd_x,bcd_y,qmd_x,qmd_y
0.00000016666666666666665,-3.299434575409558,0.0000000436751433671774,0,0,0,0
0.006688963210702341,-3.251700246017219,0.0017837972295888646,-0.000000000000000002019463190432068,0.000000000000000010796210893680996,0.0000000000000000031969224132383745,-0.0000000000000000026642763891783445
0.013377926421404682,-3.2047296673056453,0.003633489084176625,0.000000000000000005879513446303454,0.000000000000000005508584946592181,0.00000000000000000042515062180126715,0.0000000000000000016426234951281754
0.020066889632107024,-3.158560715882595,0.005563903612227567,0.000000000000000002832778235833701,0.000000000000000018127899951056358,-0.000000000000000007587707224843816,-0.0000000000000000032268243082431157
0.026755852842809364,-3.1131617264682316,0.00759716697968686,0.00000000000000001442625306846559,0.000000000000000022729056816366417,0.00000000000000000027659264191014916,0.00000000000000001606143488353497
0.033444816053511704,-3.068548626805974,0.009762868292482966,0.000000000000000009655060426547611,0.000000000000000017394738529289218,0.0000000000000000017520196520769567,0.000000000000000019806962167433228
0.04013377926421405,-3.024701033680824,0.012099180855320621,-0.000000000000000007489546327754058,0.000000000000000018183897937062556,-0.000000000000000006898696385716898,0.0000000000000000145183548345971
0.046822742474916385,-2.9816440546923,0.014654298020597872,0.000000000000000040015162936429497,0.000000000000000051808874036818735,0.000000000000000037775448834685464,0.00000000000000003968891993993193
0.05351170568561873,-2.939389424674659,0.017486687866101292,-0.00012857583247958534,0.00004575705676772457,0.00024995314222871646,-0.0001710289540040051
0.06020066889632107,-2.8979519139247656,0.020667553800896757,-0.0001657498483171693,0.000038114032347305825,0.00032601885109049053,-0.00012758195961754337
0.06688963210702341,-2.8572723978164776,0.02428289967489896,-0.0002264729935657118,0.000036213978867185124,0.00039555099931137973,-0.00009596157540723504
0.07357859531772576,-2.8174692009038433,0.028445329501602883,-0.00030397332563019227,0.00003412365232398169,0.00040846679548488273,-0.000058628934261564306
0.0802675585284281,-2.7806971058990926,0.03280387718060083,-0.0003908453214055211,0.00003041838529798748,0.0003087222144878338,-0.000023210398166989014
0.08695652173913043,-2.7591676714260185,0.03458004356013382,-0.0004480699968066789,0.000026873816338364133,0.00015676485051738427,-0.000009006524148660582
0.09364548494983277,-2.7382057973319767,0.036594116858518246,-0.0005071416936535451,0.00002216344980103635,-0.00008911254370654675,-0.000007424532940939564
0.10033444816053512,-2.7174874406634397,0.03894206358350008,-0.0005674964181186861,0.000016029869706809434,-0.0004612733607723714,-0.00002706548302238923
0.10702341137123746,-2.696995185246439,0.04169508519369367,-0.0006273510855035263,0.000008276574849853227,-0.000995386252368491,-0.00007969691790522521
0.11371237458193979,-2.6768116833390407,0.04495006777120199,-0.0006840285469623805,-0.0000012770415971493105,-0.0017370048950915312,-0.0001821745226717059
0.12040133779264214,-2.6569002425101447,0.04881890770124652,-0.000734529216728229,-0.000012710866359334416,-0.0027356964209868722,-0.00035544144780060027
0.12709030100334448,-2.6373251866906697,0.053425291800508,-0.0007757474060479545,-0.000025865301939230665,-0.004022520538872278,-0.0006186746245683256
0.13377926421404682,-2.6180725688436226,0.05893804271911714,-0.000804731874177169,-0.00004048857255431595,-0.005630732897697672,-0.000993435184266972
0.14046822742474915,-2.5992521850481642,0.06565893510016771,-0.0008188758708941545,-0.000056057211465727635,-0.0075702033258556005,-0.0014966480344877186
0.14715719063545152,-2.580914121982163,0.07396319906960319,-0.0008166619336175166,-0.00007191163055732128,-0.009833357488204297,-0.0021394225698568034
0.15384615384615385,-2.563186667045439,0.08442812980046538,-0.0007979047860970121,-0.00008723963261961438,-0.012378467895194527,-0.0029199264242144728
0.1605351170568562,-2.5462854390548446,0.09777845401478816,-0.0007642701944126693,-0.00010125447420194457,-0.015122355571686846,-0.003816891858463631
0.16722408026755853,-2.531705793378492,0.11923454928106889,-0.0007172447745672505,-0.00011153466446009245,-0.017822935604736224,-0.004772045173111862
0.17391304347826086,-2.5157280209241217,0.13697814355432164,-0.0006534792544711784,-0.00012047374756093129,-0.020988642716886812,-0.005950348443716065
0.1806020066889632,-2.498058110421486,0.15009738018489685,-0.0005682569079154281,-0.00012668815576572306,-0.02472592396102155,-0.0074192469632051086
0.18729096989966554,-2.4786090741514606,0.15814304533815454,-0.0004136822742251483,-0.00015449932238797086,-0.029018810929102967,-0.009404844824302611
0.1939799331103679,-2.457792444871537,0.16220611003741658,-0.00010643042645513012,-0.00025743293985621996,-0.033628028747341776,-0.012234231336301636
0.20066889632107024,-2.435805545312565,0.1626256121669178,-0.00004901166647757836,-0.0002058931253387653,-0.039061102617040336,-0.014493234037240725
0.20735785953177258,-2.4127738851189298,0.1594894105526164,0.00011323633802841652,-0.00019784954530908532,-0.04456470362385727,-0.017345291617918892
0.2140468227424749,-2.3888156313632645,0.15284015138569718,0.00028619994157285067,-0.00018712084764784502,-0.05021392989130322,-0.020475816973439094
0.22073578595317725,-2.3639849093980994,0.14262027884725448,0.00045646053499311215,-0.00017217971916705786,-0.05603654891080079,-0.023854488326909
0.22742474916387959,-2.3382959631635214,0.12875335071984606,0.0006161267886303404,-0.000154388012724982,-0.062168480611768384,-0.02750128522053421
0.23411371237458195,-2.3119144017653315,0.11117888028874746,0.0007579523729079058,-0.00013596392267254656,-0.06881910129877646,-0.03145555343368438
0.2408026755852843,-2.294096901468952,0.0795707391326574,0.0008358365939257559,-0.0001248331883542855,-0.07379276913894936,-0.0343363885442537
0.24749163879598662,-2.277319866959158,0.051046409029910395,0.0008953096585093707,-0.00011592105492636874,-0.07899604888482666,-0.03724860596542233
0.25418060200668896,-2.2609145398106105,0.02606692378583361,0.0010215760331729377,-0.00006892724200086889,-0.0913742905163,-0.04186420590810734
0.2608695652173913,-2.244722675192667,0.004376342206563414,0.0012344812221251127,0.000024404655373567778,-0.11260745966237141,-0.04870873504373192
0.26755852842809363,-2.2288541054848854,-0.01345739016670403,0.0013004551885558396,0.00004144279120899533,-0.12427142280697401,-0.05458314924958306
0.27424749163879597,-2.213263854964663,-0.02842135732025676,0.0013260223600130583,0.000028806155225774537,-0.13846002954713627,-0.0610811119789775
0.2809364548494983,-2.197930581447656,-0.041031985556522,0.0013118985380832322,0.0000012436943625653684,-0.15612193615877656,-0.06816750821828488
0.28762541806020064,-2.182890341284745,-0.051169784661768476,0.0012508206839058691,-0.00003447065891790958,-0.17855658210083813,-0.07593393025828649
0.29431438127090304,-2.16827389220412,-0.05797151317039374,0.0010585793147034734,-0.00003662280707088618,-0.2270622774588841,-0.07925356269410655
0.3010033444816054,-2.1539450252718186,-0.06274944751556333,-0.00028655434291662116,0.0005880506790251816,-0.7142204009052904,0.4760657666685732
0.3076923076923077,-2.1399268732865067,-0.06537798340167568,-0.0030421345854749135,0.0019835503378727404,-1.740530821034846,1.7210371060167537
0.31438127090301005,-2.1267106869372094,-0.049505503729451325,-0.001263305158077072,0.0008893045005379954,-0.724517272767383,0.7445705298958107
0.3210702341137124,-2.1140452721646823,-0.030576962359330637,0.000382969195905675,-0.000090280926731599,0.1135758498156001,-0.10210486833315124
0.3277591973244147,-2.10261260869161,-0.008236762465716075,0.0005790592951799931,-0.000164992554980655,-0.008098962022672573,-0.07013202729853979
0.33444816053511706,-2.092058469497274,0.0101845238051225,0.0007401315952033105,-0.00004135351417422099,-0.07798959209234065,-0.0480592720594901
0.3411371237458194,-2.0828322253391995,0.0226823472039853,0.0008482742688842456,0.00038209382476701176,-0.06960810198072966,-0.0409505594823057
0.34782608695652173,-2.0734584243386753,0.03509582419128233,0.0009600342823309155,0.0008071254497353693,-0.06099954794432276,-0.03384193700918748
0.35451505016722407,-2.062075993444692,0.0463611285769946,0.0011210356367254513,0.0012537233011222573,-0.04930006718774787,-0.026734541085227142
0.3612040133779264,-2.050527201904236,0.05886862163560943,0.0012756421845884823,0.0016881408409919977,-0.03899020206803589,-0.020531316346879762
0.36789297658862874,-2.038220673115624,0.07703401905234712,0.0014011217531663042,0.0020670796608254862,-0.03500973967065825,-0.01844639843515562
0.3745819397993311,-2.025741400403117,0.10059213935910576,0.0015216833978567395,0.0024269658333972975,-0.03214549260541351,-0.017116795739893966
0.38127090301003347,-2.013036308207,0.1311998963234943,0.0016358160868557739,0.0027619454340387507,-0.030740417962651936,-0.016774578813682803
0.3879598662207358,-2.000473490422187,0.17696109119972686,0.001747576300031984,0.0030651369999592473,-0.030047964570759426,-0.01693884287349025
0.39464882943143814,-1.9879891937560605,0.22896915202703474,0.0018583601835266117,0.0033558912794133915,-0.029612084558697332,-0.017284818207090505
0.4013377926421405,-1.9766899540344718,0.32055847156537637,0.0019630167512365896,0.003590921541906138,-0.02951477007792454,-0.01784509842992467
0.4080267558528428,-1.9657693390817939,0.42226952271183177,0.002064807845783116,0.003815573993083777,-0.029428209548264684,-0.018395421856414206
0.41471571906354515,-1.9575855342130029,0.5971433973343759,0.002145886465888507,0.00396521260209367,-0.02941938170876182,-0.01887377465954068
0.4214046822742475,-1.9494017293442119,0.77201727195692,0.0022269650859938987,0.004114851211103563,-0.02941055386925896,-0.019352127462667148
0.4280936454849498,-1.9386516425478346,0.9038870413817816,0.002338513335625784,0.004293226732466341,-0.0293971352677593,-0.01999848162843989
0.43478260869565216,-1.9252838608698695,0.9918911603287558,0.002481141644076611,0.0045009148821768255,-0.029379033932826332,-0.02081620290020807
0.4414715719063545,-1.909575407758587,1.0533614932973099,0.002660019729109663,0.004699926025169681,-0.029320190555663147,-0.021775549519025
0.44816053511705684,-1.8924135302875176,1.1012581376646886,0.002864355195309914,0.004875167932669946,-0.02923683421790608,-0.02281286568559069
0.45484949832775917,-1.8735912990221588,1.135031962139047,0.0030997828751857443,0.005005956582017974,-0.02915280409020652,-0.023935742068988755
0.46153846153846156,-1.8529620957462294,1.154331440803774,0.003371324457121987,0.005062410240761176,-0.029161050645622164,-0.025157489005095623
0.4682274247491639,-1.8303093906738233,1.1572250084451536,0.003687138346613182,0.005008516837624643,-0.029505818692807485,-0.026520819906242433
0.47491638795986624,-1.8053989645609967,1.1406563471336397,0.004068179558142144,0.004818337619691712,-0.030738717691715652,-0.028112659004160954
0.4816053511705686,-1.781878070799198,1.1085490877775197,0.004360497198672208,0.004703065200563245,-0.03205100167840095,-0.027648628448492887
0.4882943143812709,-1.7637853803217474,1.0737334770751628,0.004730721052620952,0.004473905431465061,-0.03535849746162644,-0.029427172810032327
0.49498327759197325,-1.74817827816439,1.0345920434284337,0.005138010018817811,0.004004532732532472,-0.03928011704395133,-0.03283902202654038
0.5016722408026756,-1.732971807954199,0.9809235887744457,0.005314205800557452,0.0032123569960327975,-0.040148785695938494,-0.03368492704389767
0.5083612040133779,-1.7183906337543646,0.9091309143333378,0.0054202314486064196,0.002092202229423421,-0.03941981852035977,-0.03401673774508568
0.5150501672240803,-1.7043007952926748,0.8249432515048583,0.005643385296241925,0.0006084077828087352,-0.03792413717375526,-0.03491694501874119
0.5217391304347826,-1.6909143443977115,0.7239814536807059,0.006124746438793841,-0.0014516324499223856,-0.035587637008600126,-0.03714184852294568
0.5284280936454849,-1.6811111046944311,0.5902596674929182,0.004502063326824003,-0.0019532928611335075,-0.03175951486405976,-0.031007377435915022
0.5351170568561873,-1.672616647892035,0.44457215829583197,0.0021108692352574676,-0.0018857485131546746,-0.02738657154187458,-0.02181960975489894
0.5418060200668896,-1.6641906720512503,0.29372908303523376,0.0002110244704646398,-0.0018939489835700515,-0.023957848702744772,-0.014603897341356847
0.5484949832775919,-1.6560351840432324,0.1225224226498006,0.0002519236935339519,-0.0022013282518389033,-0.024258631789141456,-0.015177458659423338
0.5551839464882943,-1.6478796960352144,-0.048684237735632574,0.000292822916603264,-0.002508707520107755,-0.02455941487553814,-0.015751019977489834
0.5618729096989966,-1.6371402325737707,-0.16306048415610253,0.00038021004107969473,-0.0029412868141775444,-0.024762076243058775,-0.016431701943645485
0.568561872909699,-1.6244227786055823,-0.23393398786744846,0.0005031828858228794,-0.0034697046589387253,-0.024889627056342147,-0.01719438299563448
0.5752508361204013,-1.6097064277115944,-0.2528840875734648,0.000716862013319184,-0.004134224747706964,-0.024724564585300902,-0.01793595387844279
0.5819397993311036,-1.5942282916103663,-0.2561773436040999,0.000993879077969944,-0.004869099197261375,-0.024339541171829803,-0.01860230892066594
0.5886287625418061,-1.5780825420609081,-0.24717521935396392,0.0013472041414239072,-0.005677930985916872,-0.02368082408989877,-0.019148870979728973
0.5953177257525084,-1.5613904684744038,-0.2227648933897663,0.001808080131577465,-0.006568202738884032,-0.022609020851057444,-0.01945185146577892
0.6020066889632107,-1.5443942810649285,-0.18418325452168705,0.0023671561307960142,-0.007510124243615742,-0.021102636988381475,-0.019437574487763256
0.6086956521739131,-1.5272686629372363,-0.13275950263265546,0.0030053762202942405,-0.008471500082967088,-0.019179189897809097,-0.019076960571838115
0.6153846153846154,-1.5101013066999385,-0.0675802319604253,0.0037110851189857204,-0.00942548061007609,-0.01681564669110516,-0.018318609235742037
0.6220735785953178,-1.492964368137772,0.012605758088243307,0.004468072527227619,-0.010342137144008789,-0.013997661619321427,-0.01711999195816313
0.6287625418060201,-1.4760732525553764,0.11489362693039609,0.00524700593656644,-0.011146771392691992,-0.01059961775540215,-0.015311258702410247
0.6354515050167224,-1.459575690269887,0.24027589585654374,0.00599972943626124,-0.011802783394669681,-0.006649198832965438,-0.012931489925261505
0.6421404682274248,-1.4435367512730484,0.3928761687687214,0.006705852142667263,-0.012300964497865495,-0.0019765512654595944,-0.009903257057454398
0.6488294314381271,-1.4280681231166112,0.579866461852218,0.007353920673858745,-0.012639951062836467,0.0035859152306073373,-0.0061447282634135006
0.6555183946488294,-1.414263305465401,0.8699303892600264,0.007872677498072014,-0.012715503768639667,0.011491448931757482,-0.0007050770988834007
0.6622073578595318,-1.4004323096551903,1.1330487737408172,0.008366374468137278,-0.012614602251514676,0.025546919892277954,0.008793551093977697
0.6688963210702341,-1.3865789420358468,1.3731395441209944,0.008838655330451401,-0.012362903262502788,0.0448581165338635,0.021760973992695127
0.6755852842809364,-1.3727407178775937,1.5763864052407008,0.008357730157196338,-0.010876314082883764,0.04984864069937034,0.02975218551479892
0.6822742474916388,-1.357674491449598,1.7729597914639503,0.008313213977600369,-0.009702756807372008,-0.07761986031834708,0.11256608587572489
0.6889632107023411,-1.3407262731345884,1.958671533281776,0.008820991678763157,-0.008959561612341245,-0.18908929246418957,0.179724885617215
0.6956521739130435,-1.3221079139377974,2.1279861254801746,0.009141196879833745,-0.008230953338300118,0.8135594238122374,-0.4228717354502395
0.7023411371237458,-1.3027707234557373,2.271977985258563,0.006666574844532563,-0.0062606750120133906,0.3174190125399625,0.019200974556309314
0.7090301003344481,-1.282993535801508,2.4129916374404896,0.005198607318756882,-0.005073580731733945,0.20707988296402105,0.07138384938572616
0.7157190635451505,-1.262745771482504,2.5551548455289064,0.0037528345604962,-0.004270985513514097,0.17508996746396308,0.06382482884281568
0.7224080267558528,-1.2420802577284002,2.7018985195578997,0.0020448851897973182,-0.003919262422838992,0.1559703801920229,0.054325025500332205
0.7290969899665551,-1.2209925118973015,2.858232546637925,0.002401454245837568,-0.006825740938112416,0.11424986223084399,0.046879956963431446
0.7357859531772575,-1.1995003460821172,3.028945689440556,0.0021823139908852627,-0.007596104067175804,0.09393454150742679,0.04296322473871814
0.7424749163879598,-1.1775622546361462,3.2196746240583347,0.001280559724806772,-0.006869142798963003,0.08851857287521639,0.04030212617486312
0.7491638795986622,-1.1552292132514026,3.440386676762531,0.00035326407109463045,-0.006203913649629569,0.08371410893111413,0.03773121717778913
0.7558528428093646,-1.1325532362541522,3.702639968083223,-0.000584506625637048,-0.005601871474806854,0.07909539312358203,0.035161634129583674
0.7625418060200669,-1.1030228346507402,3.80420333049798,-0.0017700022608829788,-0.004918151409743316,0.07296421621418045,0.03178147764373312
0.7692307692307693,-1.0706313977228004,3.7893234241711293,-0.0029621421474839145,-0.004281866380843123,0.06568021167936262,0.027992009644965662
0.7759197324414716,-1.0392262789159128,3.7546535890010695,-0.003937754875207826,-0.003761433192065599,0.05797956896651349,0.024304591027413183
0.782608695652174,-1.0089562979119815,3.697546407503464,-0.004611119905032091,-0.003359172421113907,0.050072741643358544,0.02087685385199334
0.7892976588628763,-0.9797266618545047,3.6188301500111275,-0.004979047496742704,-0.0030657680823687234,0.042315432437310764,0.017815445446829812
0.7959866220735786,-0.9518425450614302,3.509516495557989,-0.004968622414330773,-0.0029135411927161867,0.03511788928398876,0.015310408382289654
0.802675585284281,-0.9254278325028353,3.36401325081893,-0.0045912447493969945,-0.0029169073792139214,0.028711007905880298,0.013405929897944266
0.8093645484949833,-0.9009338110011911,3.1643209201385383,-0.0038288137497719025,-0.00311074307812832,0.02325077517572533,0.01215644675072452
0.8160535117056856,-0.8794727122277972,2.8691201178826136,-0.0026143079732594567,-0.003562101058196962,0.01889866247531112,0.01166935372523539
0.822742474916388,-0.8577455507746184,2.6181697059555082,-0.00009213413515800264,-0.004728131239419444,0.014830989433522453,0.01238484413572683
0.8294314381270903,-0.8339070104247445,2.4786295309560824,0.03399503319574693,-0.024012963313146903,0.006755969981891088,0.0384070566174735
0.8361204013377926,-0.8088662377822404,2.3927023779220886,-0.0011048297386771766,-0.003243923149002046,0.008447555894306607,0.009339037678575926
0.842809364548495,-0.7829711948595051,2.3373913440141516,-0.007991951240204452,0.0012716444825623388,0.006789778804527536,0.0028126923393581105
0.8494983277591973,-0.7563378322750204,2.3021750731180366,-0.007419925073530661,0.0014873397917942825,0.0046360835601652935,0.0023748979822653705
0.8561872909698997,-0.729136898835264,2.278394144469174,-0.006839512090709166,0.001690912490223176,0.002902396086112556,0.0020706327698131947
0.862876254180602,-0.7013747753577945,2.2630826323306272,-0.00626924249563597,0.0018842024512896718,0.0015301608009246903,0.0018727618848886276
0.8695652173913043,-0.6730963030692647,2.2548101513341954,-0.005730910782725865,0.002068319526721743,0.0004912900397478394,0.0017646255616021633
0.8762541806020067,-0.6442655321754779,2.2519294832691936,-0.005237908506800672,0.002246310209631126,-0.00029237860494941975,0.0017200714929937544
0.882943143812709,-0.6150009248837898,2.252834055190607,-0.004798310050988124,0.002420777967514843,-0.0008920677958138485,0.0017182795813463574
0.8896321070234113,-0.5852424716414886,2.257467274369993,-0.0044296132152294165,0.0025936660205649054,-0.0013350167234415895,0.0017520078486028075
