# n,energy,berry,bcd_x,bcd_y,qmd_x,qmd_y
0.0000015,-2.9999956167262214,-0.00000000000000002215550892191847,0,0,0,0
0.006688963210702341,-2.9758618967657267,0.0000000008896237794063084,-0.000000000000000000002489656046432993,0.0000000000000000000013915245672148541,0.0000000000000000000007796506418885747,-0.000000000000000000004245634799503015
0.013377926421404682,-2.951907592365246,0.00000000000000000000008419995223809768,-0.00000000000000000006868884041836937,-0.00000000000000000007599365194417845,-0.000000000000000000035412817339219797,0.00000000000000000016730942614350004
0.020066889632107024,-2.9281345491940765,-0.00000000000000000000020155593597903885,-0.0000000000000000000917932104533488,-0.0000000000000000000676891289470804,0.0000000000000000002340562564593329,0.00000000000000000019265371815152604
0.026755852842809364,-2.90458348151775,-0.0000000000000000000008362791582636244,-0.0000000000000000003660494825582467,-0.0000000000000000001662620462336049,0.00000000000000000009866553148797756,-0.0000000000000000003553283046951946
0.033444816053511704,-2.881179498833392,-0.0000000064495658763340885,-0.0000000000000000002537530008046115,0.00000000000000000026349987697371226,0.00000000000000000015555345423826528,-0.00000000000000000024284962720430233
0.04013377926421405,-2.858081743736443,-0.0000000000000000000049924300048854474,-0.0000000000000000002605636582908781,-0.000000000000000002430331485289235,-0.0000000000000000006479387055631453,-0.0000000000000000003765484468637412
0.046822742474916385,-2.8351219716910303,-0.000000000000000000007326256798427965,0.0000000000000000003525961074120354,0.0000000000000000009275376972703268,-0.0000000000000000014573471571875393,0.0000000000000000001992803397817559
0.05351170568561873,-2.81234593495861,0.000000408352142038055,-0.0000000000000000005842444751096473,-0.0000000000000000009678161810466106,0.0000000000000000001059264538024413,-0.00000000000000000030119083894351054
0.06020066889632107,-2.789797719295269,-0.000000000000000000010542441143310933,0.0000000000000000030512668432481593,0.0000000000000000001595658279097329,-0.00000000000000000027765388212194917,-0.0000000000000000013823718819158175
0.06688963210702341,-2.7674132001485114,0.00000032946342375280145,0.0000000000000000004567782728584299,-0.0000000000000000012052692313118889,0.0000000000000000017775040278973036,-0.0000000000000000006630803095202614
0.07357859531772576,-2.745245993255625,-0.000000000000000000028008454977465333,0.0000000000000000067559627055655315,-0.00000000000000000929223422904958,0.000000000000000000924370852643513,0.0000000000000000022286069590236394
0.0802675585284281,-2.723274559277457,0.0000010389549414307934,-0.000000000000000000783469240944136,0.000000000000000002412536098524547,0.0000000000000000023454724366969055,0.0000000000000000005691618212078152
0.08695652173913043,-2.701476519915205,0.0000010900878799569782,0.000000000000000002893278332114454,-0.000000000000000006230469542116257,0.0000000000000000018882030309314115,0.0000000000000000006269710260292699
0.09364548494983277,-2.679846851403302,-0.00000000000000000008394906223500885,0.0000002997396321556929,0.0000005191642719257746,0.000021326711788241106,-0.000036938948375576615
0.10033444816053512,-2.6584597745628784,0.0000007786331789988049,-0.0000000000000000013660528182177255,-0.000000000000000011007230690838196,-0.000000000000000002031092171333262,0.0000000000000000033862269817883576
0.10702341137123746,-2.6372003862705022,-0.0000020101404737533365,-0.000000000000000005170461462691886,-0.000000000000000010370734879895397,0.0000000000000000007259364861465741,0.0000000000000000020847309225855122
0.11371237458193979,-2.6161521087419586,0.000001414763253145777,-0.000000000000000009377881928342365,-0.000000000000000006710869410187289,0.000000000000000007095664236906243,-0.000000000000000010979090061971895
0.12040133779264214,-2.595273781956444,0.0000014549052775442964,-0.000000000000000016961436039199448,0.000000000000000005922190729067892,0.0000000000000000013478953146400992,0.000000000000000001017507688722924
0.12709030100334448,-2.574612647339817,-0.0000000000000000005119338029947518,0.000006971845971822904,0.00001207559144573262,0.000017691301850462557,-0.00003064223365708296
0.13377926421404682,-2.554099562792047,-0.0000000000000000006177555116813647,0.000008765701843654938,0.000015182640957151071,0.000016394154925843048,-0.000028395509278785178
0.14046822742474915,-2.53380176123843,-0.0000000000000000006799953679506956,0.000010689021825621313,0.00001851392888525899,0.000015499851529889758,-0.00002684653035952715
0.14715719063545152,-2.513658323915075,-0.0000000000000000007582684161410124,0.000012748189504552808,0.000022080511926344965,0.000014921544928704972,-0.00002584487394399733
0.15384615384615385,-2.4937108026165,-0.0000000000000000008381542443198155,0.000014928353165652398,0.000025856666156220803,0.000014612725918017798,-0.00002530998372711939
0.1605351170568562,-2.4739791096007986,-0.000000000000000000955368919095315,0.000017211492854071287,0.000029811180097367497,0.000014549725511128694,-0.000025200863821518214
0.16722408026755853,-2.454421042207221,-0.0000000000000000010875924118331041,0.0000195996243368788,0.00003394754516080287,0.000014717317515105738,-0.00002549114168736176
0.17391304347826086,-2.435017824335098,-0.000000000000000001249228701248282,0.000022090340359047743,0.00003826159185837972,0.000015108059345701442,-0.00002616792639056992
0.1806020066889632,-2.415800747815125,-0.0000000000000000013983705607251025,0.000024656113490249353,0.0000427056412822585,0.000015717907096365424,-0.00002722421367960501
0.18729096989966554,-2.396765278088424,-0.0000000000000000015787693459461767,0.000027297893082056255,0.000047281337757875356,0.00001654667360577419,-0.000028659679381480067
0.1939799331103679,-2.377905976111684,-0.0000000000000000018017136380786084,0.00002999439619206199,0.000051951818147169503,0.000017594245796264633,-0.000030474127639963513
0.20066889632107024,-2.3592899285793294,-0.000000000000000001923271000658229,0.00003274663935996206,0.0000567188431485093,0.000018860388560542322,-0.000032667151237471844
0.20735785953177258,-2.3407913651100176,-0.000000000000000002065843373897644,0.000035552167555373894,0.00006157816052512127,0.000020355960212874853,-0.000035257557325666355
0.2140468227424749,-2.3225283631347127,-0.000000000000000002240421930491059,0.000038377817897708594,0.00006647233048239485,0.000022075195728199132,-0.00003823536058837522
0.22073578595317725,-2.3044553554649396,-0.000000000000000002476281709661396,0.000041214524125307515,0.00007138564979472512,0.000024025519625427225,-0.000041613420669593536
0.22742474916387959,-2.286535127919971,-0.0000000000000000027370815041023167,0.000044071296566238844,0.00007633372480806414,0.000026217812371636947,-0.000045410583091136546
0.23411371237458195,-2.268790997293722,-0.0000000000000000029926972555726433,0.000046930737284569964,0.00008128642141343699,0.000028654768175914182,-0.00004963151435983936
0.2408026755852843,-2.251270244712596,-0.0000002305696042422127,-0.000552042445310127,0.00000000000000015519024923688783,-0.00000000000000015976954438020033,-0.0002321006216713852
0.24749163879598662,-2.233892181299688,0.000016161784533188495,-0.0005371571967039638,0.00000000000000019942690244032327,-0.000000000000000025062003643785047,-0.0002375170708437775
0.25418060200668896,-2.2166854716988613,0.00002963995184482734,-0.0005311847125505041,0.00000000000000007710469729995015,0.00000000000000013700242941605073,-0.0002451840947551333
0.2608695652173913,-2.1997495043873116,0.000023556103590185413,-0.0005300510728595279,0.000000000000000176365444700465,-0.0000000000000000754710019576022,-0.0002537373486718616
0.26755852842809363,-2.182981469691742,-0.000035059426953416345,-0.0005328185458454601,0.00000000000000020756878312089902,0.000000000000000025405419496958625,-0.000263140005223275
0.27424749163879597,-2.1664474907686984,-0.000000000000000004830843610758034,0.0000633130209929618,0.00010966136914068939,0.00004882431030785188,-0.00008456618609775647
0.2809364548494983,-2.150090408213244,-0.000000000000000005220563944004813,0.00006578401114374195,0.00011394124962927629,0.00005319217911503077,-0.00009213155679261477
0.28762541806020064,-2.133908862221989,-0.000000000000000005612304975079022,0.00006815028265068708,0.00011803975210790985,0.00005786324632897871,-0.00010022208253140935
0.29431438127090304,-2.117917149703535,-0.000000000000000005976098308701261,0.00007040463610857163,0.00012194440683749675,0.00006283920831514804,-0.0001088407015048931
0.3010033444816054,-2.102151488949911,-0.000000000000000006313511374981059,0.00007252076823730056,0.00012560965519364597,0.00006814921387140077,-0.00011803790091664107
0.3076923076923077,-2.086617860765994,-0.0000000000000000067289172370947834,0.00007444590480607007,0.00012894408953930807,0.00007385780171138236,-0.00012792546515060015
0.31438127090301005,-2.0713883796850143,-0.00004111349758692762,-0.0005887552459333374,-0.0000000000000005832257720807433,0.00000000000000013090566194173505,-0.00032999810859178354
0.3210702341137124,-2.056275600969082,-0.00006971592743973003,-0.0005993974242204797,-0.0000000000000005046693505024647,0.00000000000000015794445840988375,-0.0003390896546682266
0.3277591973244147,-2.041377092872472,-0.00000941848930358153,-0.0006104082169614185,-0.00000000000000032000090630029753,0.0000000000000003709945895664936,-0.00034803833707225303
0.33444816053511706,-2.026793343243082,0.000023821019240201813,-0.0006217782787564822,0.00000000000000008731274816998542,0.00000000000000042895940872928193,-0.0003567393183313895
0.3411371237458194,-2.0124485939452663,0.00003666648838928908,-0.0006333711664184021,0.00000000000000013059813844180595,0.00000000000000020522039425911893,-0.0003652373074419613
0.34782608695652173,-1.9983033381137247,0.00006450927340797638,-0.000645126967729349,-0.00000000000000031089979274291376,-0.00000000000000017581152275527476,-0.00037355178404248677
0.35451505016722407,-1.984330974542962,-0.000000000000000010719078604896492,0.00012397933106907244,0.00021473850049856253,-0.00041841421531749304,0.0007247146795399771
0.3612040133779264,-1.9707573657073656,-0.000000000000000012067643017319163,0.00015032414423991119,0.0002603690554298648,-0.00038035394588106,0.0006587923591257724
0.36789297658862874,-1.9574472382285286,-0.000000000000000013370968315910593,0.00017801564322782073,0.00030833213861560004,-0.0003454509843518275,0.0005983386564215122
0.3745819397993311,-1.9443779740048184,-0.000000000000000014619428664995928,0.0002068497238852753,0.0003582742313021417,-0.00031310377781581546,0.0005423116512168825
0.38127090301003347,-1.9316086387348874,0.000006722355805329501,-0.0007048309446318524,0.00000000000000013232776711477223,0.0000000000000000383562682960424,-0.0004112664570831864
0.3879598662207358,-1.9192921397860314,-0.000000000000000017118664924947584,0.0002684456027399709,0.0004649614230149106,-0.00025240056242073266,0.0004371705979741428
0.39464882943143814,-1.9072111067050728,-0.0000000000000000187259239739321,0.0002998135860921364,0.000519292363907407,-0.00022272483519281198,0.00038577073066323956
0.4013377926421405,-1.8956408324443244,0.00009776569988628929,-0.0007397835043618837,0.00000000000000030337120414610926,0.00000000000000010632498032628116,-0.0004305448895939822
0.4080267558528428,-1.884317368724103,0.000006229534428753788,-0.0007511311625671474,-0.0000000000000002793031174949627,0.00000000000000017347888171729651,-0.0004364748170364669
0.41471571906354515,-1.873593548398616,-0.0001021077769958737,-0.000762114420344559,0.000000000000000229221609345272,0.0000000000000007781848617300802,-0.00044196727153263023
0.4214046822742475,-1.8631083412925635,-0.000000000000000025427858754939457,0.0005014453939158905,0.0008685288994854899,-0.00008615856980694956,0.00014923102041198422
0.4280936454849498,-1.8533502716524164,-0.00000000000000002725505655198641,0.0007035486359766151,0.0012185819831083153,-0.00002126926306384301,0.000036839444266161474
0.43478260869565216,-1.8440605231235419,0.0000650151414317912,-0.0007929943898058507,0.000000000000001029335391682465,-0.0000000000000004782208621766829,-0.00045672946441639744
0.4414715719063545,-1.8358924019362686,-0.000000000000000030630710923536755,0.0007400307786506444,0.0012817709077865723,0.0000024132377057092917,-0.000004179850314932969
0.44816053511705684,-1.827482153752183,0.00032298000927042866,-0.0008108338244436277,0.0000000000000005553289337015858,0.000000000000000013340113201770972,-0.00046475525390726
0.45484949832775917,-1.8230250178803513,-0.00000000000000003286975345012795,0.0006494229162073473,0.0011248334864678248,0.000007769284339806633,-0.000013456795212896133
0.46153846153846156,-1.8185193013652532,-0.000000000000000033450507795944695,0.0006333723469801972,0.0010970330850755136,0.000028777768894252188,-0.0000498445578522613
0.4682274247491639,-1.8139085253406542,0.00023384694553725262,0.003182253206178643,0.000000000000000745060243987252,0.000000000000000648974089215994,-0.002709004519593166
0.47491638795986624,-1.809402735564245,0.00020334541544457445,0.004519956980157932,0.0000000000000008097996517519905,0.00000000000000086068320076633945,-0.0034607940878669217
0.4816053511705686,-1.8033112438285854,-0.00000000000000003533436756122257,0.0006097137809625699,0.0010560552466961062,0.00009657749796386793,-0.00016727713334089683
0.4882943143812709,-1.7960671397210606,0.0000734568939597094,0.015923680919451493,0.0000000000000008728561976740935,0.0000000000000012632930286559296,-0.010016338449974908
0.49498327759197325,-1.7888859904251038,-0.00000000000000003694922986749062,0.0006560329173084544,0.001136282344205084,0.00015388037830746208,-0.00026652863351023866
0.5016722408026756,-1.7801211529810173,-0.00008790011729181734,0.031718381094008374,0.0000000000000002813875208845346,0.00000000000000027004730821684995,-0.01920528066248731
0.5083612040133779,-1.7710623338067721,-0.000000000000000038369446266005707,0.0007136082093416017,0.0012360056752720393,0.00023203917278939894,-0.00040190363662002363
0.5150501672240803,-1.7612297915239923,-0.00015654743321106312,0.0504139921100934,-0.0000000000000009366082812009796,-0.0000000000000014292053912030802,-0.029984081698769836
0.5217391304347826,-1.7510330622080643,-0.000000000000000039972771645226006,0.0007781812888612672,0.001347849529803696,0.00032876280716237255,-0.0005694338856435971
0.5284280936454849,-1.7400944823021587,-0.000000000000000040929624869627516,0.0007142465505175823,0.0012371113146228232,0.00026687580167371317,-0.00046224244777673157
0.5351170568561873,-1.7289372808084789,-0.00000000000000004187237852256992,0.0006586633371882952,0.0011408383650871902,0.00020076819735800476,-0.00034774071830116104
0.5418060200668896,-1.7170697958250278,0.000026470986949588037,0.02603786527705238,0.0000000000000015421319086619396,0.0000000000000005879739776773779,-0.014401868166286684
0.5484949832775919,-1.7048825852637521,-0.00012146815261189209,-0.0009539682007423568,0.0000000000000004644041300320978,0.000000000000000975444290903341,-0.0005170891301538149
0.5551839464882943,-1.692187394035022,-0.00014991987336660138,-0.0009698406983745812,-0.000000000000003866802116687965,0.0000000000000017229003628714336,-0.0005217838455465938
0.5618729096989966,-1.678890926218005,-0.00022021514277736646,-0.0009867471517901575,-0.0000000000000008183559686937924,0.0000000000000006489330060841486,-0.0005264856232782817
0.568561872909699,-1.6654326550282512,-0.00000000000000004274026097849259,0.0010358183740598451,0.0017940900512791538,0.0008952895199524601,-0.0015506869360399284
0.5752508361204013,-1.6515297666980318,-0.00000000000000004343884171553265,0.0010722417438428103,0.0018571771783230623,0.001016191110300861,-0.0017600946332387798
0.5819397993311036,-1.6371250846625758,-0.0001891055671559823,-0.0010410997189618568,-0.00000000000000038146436090736787,0.0000000000000023998199068099357,-0.0005402195425591889
0.5886287625418061,-1.6222444198300048,-0.00025122118524925315,-0.0010610234403199944,-0.0000000000000002368261356551874,0.0000000000000004512569967829289,-0.0005446892923173393
0.5953177257525084,-1.6070532790427143,0.000014463549505847983,-0.0010816195077293712,0.00000000000000016222283176883247,-0.0000000000000003336042971445643,-0.0005490388512769093
0.6020066889632107,-1.5915861010536467,-0.00000000000000004690686132924729,0.0011900648518115577,0.0020612527876292747,0.001708584141290407,-0.002959354541722423
0.6086956521739131,-1.575627988386526,-0.000000000000000047596236141590296,0.0012077048474796884,0.002091806156368508,0.0019545814103578414,-0.0033854343102676493
0.6153846153846154,-1.559292274865484,-0.000000000000000047350891033988827,0.0012176474709098021,0.002109027285328395,0.0022477292012175825,-0.0038931811781699973
0.6220735785953178,-1.5426189873085314,-0.0004200286211796969,-0.0011721802367265968,0.00000000000000400548742127668,0.0000000000000012340746066795008,-0.0005646933178148174
0.6287625418060201,-1.5255350053446002,-0.0003759502254313594,-0.0011969995184047068,0.0000000000000016480991058120856,0.0000000000000011388276703639473,-0.0005680559213153306
0.6354515050167224,-1.5081465336566602,-0.000000000000000049665266871876336,0.0011863967111659381,0.0020548993816758665,0.0035695627230790906,-0.0061826639971738085
0.6421404682274248,-1.490385942817446,-0.000000000000000051150614216827105,0.0011485137894027542,0.0019892842364383685,0.00428335558698542,-0.00741898950353713
0.6488294314381271,-1.4722712805256277,-0.000201630697143176,-0.001276643120231123,0.0000000000000037877833817586735,-0.0000000000000012243043816676476,-0.0005763967783096095
0.6555183946488294,-1.4537090351317536,-0.00032939185665083935,-0.0013051828400852607,0.0000000000000016695298239163995,-0.0000000000000008896291175393817,-0.0005784989256105546
0.6622073578595318,-1.4348457076966976,-0.00000000000000005598185400995466,0.0008753058166803781,0.0015160741466405303,0.01008517422870218,-0.01746803416729326
0.6688963210702341,-1.4156050681827936,-0.0000000000000000569664187736453,0.00066595597211764,0.0011534695793138303,0.017233878647303892,-0.029849953383729082
0.6755852842809364,-1.396136183711958,0.00008150766816277938,-0.0013961690622103882,0.00000000000000007584500136596448,0.0000000000000012004473396766074,-0.0005822030701899562
0.6822742474916388,-1.3760971936218132,0.00010981602485936029,-0.001428696707139199,0.000000000000002837700172567117,-0.000000000000000466806136056145,-0.0005824609584212751
0.6889632107023411,-1.3557353094646294,0.00007762470856149359,-0.001462180233821,-0.000000000000005319428091732143,0.000000000000002348223175030822,-0.0005821605613300213
0.6956521739130435,-1.3350861372914764,-0.00000000000000005842232992006882,0.000518044584984808,0.0008972795417783267,-0.0004948239511705189,0.0008570602242306764
0.7023411371237458,-1.3140942794814732,0.000220439679010515,-0.0015320271521294265,-0.0000000000000013632749698630652,-0.0000000000000008596430450301715,-0.0005797698281885952
0.7090301003344481,-1.2927386079467633,-0.0000158530049218474,-0.0015684752941654016,0.0000000000000026444423041555386,-0.0000000000000002693248983809349,-0.0005775744525799841
0.7157190635451505,-1.2709593885348305,0.00004899588057770079,-0.0016061078057779455,-0.0000000000000014329599076340751,0.0000000000000003863962395775871,-0.0005746686975395909
0.7224080267558528,-1.2488818737777398,0.0002465533007626568,-0.0016446543015745708,-0.000000000000002026271306277542,-0.0000000000000014095490892401202,-0.000571005916379365
0.7290969899665551,-1.2264956295827385,-0.00000000000000005865227538779375,0.0007168519889416655,0.0012416240663550315,-0.000584776643999726,0.0010128628584875803
0.7357859531772575,-1.2037173367975114,-0.0000000000000000596339092833729,0.000760706925690828,0.0013175830449602495,-0.0006098843648966642,0.001056350706744823
