# n,energy,berry,bcd_x,bcd_y,qmd_x,qmd_y
0.00000007407407407407407,-3.147317792601286,0.000000010593872284774225,0,0,0,0
0.006666666666666667,-3.0999152679510096,0.0009895410613224944,0.0000000000000000008257332849384271,0.0000000000000000005349060119296865,-0.0000000000000000007673072122865095,0.000000000000000000946793532934242
0.013333333333333334,-3.053162269180649,0.0020589168701015082,-0.000000000000000001440939547858513,0.000000000000000002864641750005285,-0.000000000000000004243295984516742,-0.0000000000000000011276913874790345
0.02,-3.0071120114238656,0.003227383363732864,-0.0000000000000000009254674137051396,0.00000000000000000832954627895578,0.000000000000000010093694933831923,-0.0000000000000000004692118855873865
0.02666666666666667,-2.961719971189561,0.004518841615812873,-0.000000000000000002243193938874575,-0.0000000000000000029703776311900963,0.000000000000000008200338999488466,-0.0000000000000000018091684393318235
0.03333333333333333,-2.9192330524835115,0.005815154371584999,-0.0000000000000000033720219862894452,0.000000000000000032896493122559614,0.000000000000000011325087037589429,0.000000000000000004475479213804251
0.04,-2.895805043705795,0.005989626565999945,-0.000000000000000011138068687738967,0.000000000000000012797381413216563,0.00000000000000000006249076151746141,0.0000000000000000013493014163785156
0.04666666666666667,-2.8730911239505685,0.0061628469004777605,-0.00000000000000000570215886604808,0.0000000000000000644040565281101,-0.00000000000000002513863003325057,-0.00000000000000000038633590485764265
0.05333333333333334,-2.8505394901984755,0.006373960197336918,0.0000000000000000016482915929752998,0.00000000000000007513238517184459,-0.000000000000000024203687670048705,0.00000000000000001039682952572874
0.06,-2.8281730777651295,0.006626263732037933,0.000000000000000001792879576255015,0.00000000000000003652294403014794,-0.000000000000000008805787592259471,0.0000000000000000001578380043456968
0.06666666666666667,-2.8059907868756597,0.006923209064730843,-0.00005058783483416756,0.000023730100671665467,0.00007431140111225525,-0.00005075720874781179
0.07333333333333333,-2.7839773901855756,0.007268672267767827,-0.00007356863369374187,0.00003010157871366283,0.00010933925729943098,-0.00006330500161580423
0.08,-2.762138324997057,0.007669648971217092,-0.00007462513108463487,0.000024988835853035835,0.0001099558479531285,-0.000050531625573751134
0.08666666666666667,-2.7405011567170616,0.00812622061431623,-0.00008129368055303958,0.000022901946245923857,0.00011494024414131699,-0.000043849070426883204
0.09333333333333334,-2.7190559038525226,0.008647710920298412,-0.000090483138730607,0.000021756258076318877,0.00011912169461965532,-0.000038852401171982034
0.1,-2.697762536843573,0.009237459731057291,-0.00010146074732727242,0.00002097128850093565,0.00012006440278921932,-0.000034437643528900086
0.10666666666666667,-2.6766563505687753,0.009903911458422706,-0.0001139574915186867,0.000020305055033122346,0.00011552758826761776,-0.000030302429674089635
0.11333333333333333,-2.6557728972852366,0.010648248776055603,-0.00012780366953072563,0.00001960737587167534,0.0001028948505236057,-0.000026480541337728798
0.12,-2.635055124726811,0.011487153160182747,-0.00014294862773050714,0.000018779957498265246,0.00007893889063667805,-0.000023247119681435785
0.12666666666666668,-2.6145655555074705,0.01242522924286435,-0.000159239977653782,0.00001773483973943177,0.000039679724851102396,-0.00002115030673534138
0.13333333333333333,-2.5942637292995663,0.013476542003841475,-0.000030611305240702474,-0.0000705928142984442,0.00012263191384354665,-0.0003508893194447301
0.14,-2.574152929807487,0.014649932341014141,-0.00012278588383520236,-0.00003612653267962483,-0.00007337788861650765,-0.0002234489090810996
0.14666666666666667,-2.5542788001828685,0.01597548957154526,-0.00014945054998150885,-0.00003961748345256558,-0.00022830165992641466,-0.00023238237788130022
0.15333333333333332,-2.5345886357328054,0.017459087972774553,-0.00016630512789517506,-0.00004997058705875115,-0.00041622677184221363,-0.00026467671637052235
0.16,-2.5151720899481447,0.019142687828487128,-0.00017971555104956223,-0.000063514656710391,-0.0006546862602190351,-0.0003080268567090278
0.16666666666666666,-2.4959740640494466,0.0210692803639497,-0.00019027544428407446,-0.00007983029842184142,-0.0009566293315892162,-0.0003620069922905318
0.17333333333333334,-2.4770368994519743,0.023271977267420925,-0.00019772319943002018,-0.00009871068387653358,-0.0013335254540860768,-0.00042723330901345036
0.18,-2.45838043857729,0.025832649872299857,-0.00020143839228296473,-0.00012009015741930345,-0.001796459575533342,-0.0005048956664675253
0.18666666666666668,-2.4400155778281594,0.028859127582193604,-0.00020069040910163956,-0.0001438596578678718,-0.002355385199877509,-0.0005960569327244064
0.19333333333333333,-2.4219910242995724,0.03249805076374446,-0.0001947511635274467,-0.00016977456755031708,-0.003016401645593641,-0.0007010785982255492
0.2,-2.4043668675777767,0.036954175939683115,-0.00018304030521526992,-0.0001974689190318173,-0.0037803923705449676,-0.0008193608301844351
0.20666666666666667,-2.3871924471092583,0.04250666649912658,-0.00016523852444158844,-0.00022649260781793892,-0.004642880280728194,-0.0009493029681684169
0.21333333333333335,-2.370704630634118,0.05002118171579924,-0.00014027429274471111,-0.00025618552325835486,-0.0056029035289293285,-0.0010883784073663083
0.22,-2.35545192634214,0.06179980178727981,-0.00010984072409399324,-0.0002846463276908367,-0.006597802226967274,-0.0012247153051506024
0.22666666666666666,-2.340899498857687,0.07624408260040852,-0.00007539227300413487,-0.00031209096321297526,-0.007614107656520325,-0.0013555489533350618
0.23333333333333334,-2.3267938298029978,0.09248790751269004,-0.00003731866432708028,-0.0003387819979884248,-0.008652835722418494,-0.0014810946388517
0.24,-2.3098397500026056,0.09850460549617787,0.00001752309635275336,-0.0003697597757123736,-0.009966305024670923,-0.0016103408637576993
0.24666666666666667,-2.29182541421867,0.09990859020206903,0.0000821648836403321,-0.000400263211217806,-0.011348742752212305,-0.0017008166949850985
0.25333333333333335,-2.272915756154855,0.096859327433537,0.00015427868308397858,-0.000428252661858863,-0.012692908060180377,-0.0017090692364072609
0.26,-2.2533109079532254,0.08932754805511653,0.0002290917803053544,-0.00045140897620693683,-0.01383291518174476,-0.0015716902317982609
0.26666666666666666,-2.233198436717597,0.07709643323141255,0.00029928515507129645,-0.00046778763795871515,-0.014552657225260137,-0.0012081753496001424
0.2733333333333333,-2.212850647057374,0.05978497258076923,0.0003553697453522405,-0.0004765075204969373,-0.014602063578253836,-0.0005304422894705637
0.28,-2.1926492404697098,0.03684163266750944,0.00038770699215373057,-0.0004785049367112352,-0.013755315884481428,0.0005335180241490392
0.2866666666666667,-2.173727142587724,0.007169133812100697,0.0003899953380276364,-0.0004763757206867122,-0.011960850024748157,0.0019533353703035873
0.29333333333333333,-2.1555911600633393,-0.02794477339354389,0.0003625684259634643,-0.00047209722825625145,-0.009178369256796513,0.00374853542315381
0.3,-2.135562185956817,-0.06675592527390614,0.00029528488718100096,-0.000462031152348231,-0.004647749975761257,0.006297034888048024
0.30666666666666664,-2.112291503339794,-0.11107900806995784,0.00017259066539487592,-0.00041524208973233465,0.003067931674153733,0.010101819491387939
0.31333333333333335,-2.091699913837087,-0.1598307553927086,0.00006156615649190651,-0.0002576973773635474,0.01274446341344008,0.014082752547938457
0.32,-2.070882664911812,-0.1927924292509613,0.0000004152662541145695,-0.00009520333633173273,0.019885071945449202,0.017102783939944043
0.32666666666666666,-2.0476507255397673,-0.20138175768325742,-0.000023740940543841872,-0.000015418362016692665,0.022964172607337404,0.019014299153882263
0.3333333333333333,-2.0240082060750133,-0.20063064790733923,0.0003580488866312964,-0.00010983922566930654,0.008251849821522696,0.018223687379096708
0.34,-2.0000595176479674,-0.19123262729541649,0.00040948883916084797,-0.000027229250875154804,0.00859900153359904,0.01811998385213769
0.3466666666666667,-1.975941521264794,-0.1730170769937392,0.0004412486591344188,-0.000010867496186926693,0.009888612492741207,0.018375834966428136
0.35333333333333333,-1.9519928593871312,-0.14696850235790765,0.0004621485505640755,-0.00002298925608019284,0.011631578742045665,0.01896760168933784
0.36,-1.9317977942625564,-0.11499219790355796,0.0004650009171415899,-0.00003839419769275042,0.013884647762854911,0.01980313709310009
0.36666666666666664,-1.91658582410073,-0.08135570777472276,0.00045578112259350755,-0.00004597168530082883,0.01622827350637334,0.02085972725368648
0.37333333333333335,-1.901826112781281,-0.050570995860034204,0.0003309418721213499,0.00007642014932776762,0.023904614191737474,0.028136789718921636
0.38,-1.8873708644725813,-0.0216196940268033,0.00032652547142693,0.0001225229245728879,0.029732564391496227,0.03198706818805458
0.38666666666666666,-1.8731873550871927,0.005602473513208398,0.0003740852608298139,0.00012991215593711328,0.03476570623695846,0.034202932499783976
0.3933333333333333,-1.85939593854411,0.030115254585101676,0.00036837576048505367,0.00014932775889844093,0.04062768467248881,0.03735141947544831
0.4,-1.8459898169062667,0.05080688245673698,0.0003638460236396213,0.00017969243922863877,0.046400104669369925,0.04061846302464379
0.4066666666666667,-1.8328383892719036,0.06816026154365934,0.00036703378092977566,0.00022405184091027548,0.051414861657047506,0.04371970905959966
0.41333333333333333,-1.8201862106257916,0.0767918762686968,0.000403951724110966,0.00031396161432552683,0.053071612636759365,0.045841253563310834
0.42,-1.8081588879868185,0.06306200583769075,0.00017716669991641118,0.0008043936152624205,0.04975969412042294,0.052830357449193725
0.4266666666666667,-1.7966291603534907,0.03152489148915965,-0.0002596143522282791,0.0016137756747530419,0.04249104781770398,0.0636956715508343
0.43333333333333335,-1.7846491402841103,-0.010463953490819713,-0.00007206060898744162,0.002024338791923325,-0.124509249793583,0.8720742435440114
0.44,-1.7725354100746877,-0.05539883181952587,0.00021818616669026209,0.002343575133733554,-0.31592478056560347,1.7111304566139938
0.44666666666666666,-1.7603626279399598,-0.10000856587828974,-0.00030003098274307774,0.0029022620414060015,-0.28049625407065154,0.43545789968972604
0.4533333333333333,-1.7486269401838677,-0.14397087368804165,-0.000613099397503222,0.0033218118362445515,-0.23607862770665997,-0.2769856599514623
0.46,-1.7375452573467836,-0.18696446633639163,-0.0006192128657753137,0.0035331769445313336,-0.17821101017566238,-0.14669466898985545
0.4666666666666667,-1.7273486934358964,-0.22909893174757937,-0.0005865475092124196,0.0037919278584639163,-0.1450175560408115,-0.08292361377005014
0.47333333333333333,-1.7178752455806978,-0.27053151554638283,-0.0005222009965596985,0.0040893915779416645,-0.13198216562412568,-0.07349738401334002
0.48,-1.7085433287605696,-0.3121784385640542,-0.0004560121837287234,0.004389376538596708,-0.12435849382882921,-0.06828286866368033
0.4866666666666667,-1.6994365099574482,-0.3541662573655379,-0.0003868932848099092,0.004693371406966511,-0.12534188923734677,-0.06976687396538592
0.49333333333333335,-1.6907013234357273,-0.40277018042282525,-0.0003225630990788241,0.004978704326292028,-0.12597914393571186,-0.07103781861829636
0.5,-1.6843562010512372,-0.4939239956756626,-0.00028903037693282573,0.0051440173835821884,-0.12439027744069364,-0.07093851466465048
0.5066666666666667,-1.678011078666747,-0.5850778109285008,-0.00025549765478682706,0.00530933044087235,-0.12280141094567541,-0.07083921071100462
0.5133333333333333,-1.671665956282257,-0.6762316261813373,-0.000221964932640829,0.00547464349816251,-0.12121254445065721,-0.07073990675735874
0.52,-1.663627228321931,-0.7378644785033716,-0.00018114311691571586,0.005646014912102473,-0.11867028217321943,-0.07031958318086409
0.5266666666666666,-1.6554068967717357,-0.7963318282307381,-0.0001395396991577856,0.0058180359574158845,-0.11602578824330925,-0.06986483699927189
0.5333333333333333,-1.646574684541915,-0.8430345100042529,-0.0000919923740055626,0.005983196728338011,-0.1131434588003267,-0.06934032948564392
0.54,-1.636857905677419,-0.8727295739749152,-0.00003585222620724332,0.006138439928672731,-0.10991730193083737,-0.06871497135070334
0.5466666666666666,-1.6269248129669454,-0.8970313697901304,0.00002535300486397029,0.0062790973421548634,-0.10661993868968532,-0.06806229704069565
0.5533333333333333,-1.6164839844841052,-0.9086739890274469,0.00009844709101994259,0.006385518732881855,-0.10315543856485337,-0.0673455057104247
0.56,-1.6059152932089638,-0.9151029452896269,0.00017794028668594085,0.006466610987021355,-0.09963412228572752,-0.0665902073376605
0.5666666666666667,-1.5950927341049093,-0.9111803264269536,0.0002701387268491544,0.0064974129823766776,-0.09599999919644094,-0.06575845435992736
0.5733333333333334,-1.5841914906989059,-0.8999770810219929,0.0003700802793749458,0.006482616176218657,-0.09228878613047532,-0.06485130371048174
0.58,-1.5731902750739524,-0.879523446749717,0.00047985983141645393,0.0064098838828560625,-0.08847962651308168,-0.0638483566650832
0.5866666666666667,-1.5622291958066814,-0.847593985333816,0.0005958323838968116,0.0062615355584129855,-0.08456837975143693,-0.06270694215152196
0.5933333333333334,-1.5512975821430648,-0.807239689335375,0.0007163514499847637,0.00605767467303044,-0.0805821869930849,-0.061463873482688655
0.6,-1.540627349028277,-0.7487083253764584,0.0008336799699950682,0.005748339148399988,-0.07652050385544938,-0.06002763934562525
0.6066666666666667,-1.5300685916601424,-0.6824246545532712,0.0009496477594237276,0.005394019923888678,-0.07242662495407572,-0.058509022395857584
0.6133333333333333,-1.5203273230593224,-0.5832229543111496,0.0010415847820478418,0.004939734978355205,-0.06847770695829819,-0.05684588011116559
0.62,-1.5108454052945235,-0.4735779075775319,0.0011258979696907602,0.004453735599110635,-0.06457477825749308,-0.05513688671764183
0.6266666666666667,-1.5020810868417664,-0.33428476969036847,0.0011778087740606494,0.0039071748168091735,-0.06088438351165756,-0.05337076648163178
0.6333333333333333,-1.4938016703446328,-0.17495758614623907,0.001207824380438716,0.003319690998093397,-0.05733760391242513,-0.05156604403798953
0.64,-1.48523251572161,-0.019882533963285834,0.0012266473794570513,0.002685096540135407,-0.05366888445889255,-0.04965953560206813
0.6466666666666666,-1.4745444135298493,0.10409532180455826,0.0011636152616178847,0.001705966912090423,-0.04910837985624178,-0.04700863365490479
0.6533333333333333,-1.463465243810182,0.21845717777435975,0.0010678320270729631,0.0006313557439353639,-0.044454954977029136,-0.04424476548995445
0.66,-1.4508404180443515,0.294812737728415,0.0008426032161441662,-0.0008206368461910389,-0.03943427181879793,-0.041034409429500686
0.6666666666666666,-1.4356849786191264,0.2793320879169522,-0.0002515780848736448,-0.0022044443975456885,-0.03395826339594686,-0.036030175422345656
0.6733333333333333,-1.4158476383176601,0.3202085768568078,-0.001282834480889358,-0.003465793802690219,-0.030418240925190177,-0.032774075193440125
0.68,-1.3911444837887204,0.5908140141593765,-0.001116568604560713,-0.004827527596473227,-0.030614660272297627,-0.03493964144492801
0.6866666666666666,-1.3690424012354037,0.8511601997097737,-0.0015546723947868876,-0.0062380480695333656,-0.021884208822194905,-0.03681748138121182
0.6933333333333334,-1.3485418269977845,1.1215450612279798,0.0005550869219924236,-0.009215196711986319,-0.02895775477930184,-0.03252367297769227
0.7,-1.3286417557267034,1.4325811035389764,0.00219733124051131,-0.011338929063596124,-0.027059066320349136,-0.028106538915046282
0.7066666666666667,-1.3094928178337815,1.7962965597816616,0.003288518074195355,-0.01283350126812508,-0.019165681390981924,-0.024028865995919045
0.7133333333333334,-1.2882174661400208,2.1773079408869043,0.004435474743528049,-0.014237958203471235,-0.010076163647215062,-0.018617533758106146
0.72,-1.267441349924315,2.598079510370984,0.005279620132474884,-0.015080818922852915,-0.0012725853425958767,-0.01264713482261824
0.7266666666666667,-1.2454603737488332,2.894745850359148,0.005678350307650844,-0.015231981994837761,0.00723640676455695,-0.006223169291748758
0.7333333333333333,-1.2218234993037138,3.0541231501149992,0.005445882913518844,-0.014546899850908634,0.014696381725931252,-0.000021589568918608214
0.74,-1.1977181881202428,3.1394217880850777,0.004538504930639833,-0.013105008353440603,0.019877148687215233,0.004764662293994527
0.7466666666666667,-1.1734820514450446,3.1766637298084577,0.0031833863030712463,-0.011252069703476034,0.022641791263605,0.007767341384668103
0.7533333333333333,-1.1494253905450615,3.1803778683817128,0.0016776521674935416,-0.009335498246309672,0.023493706246387892,0.009273261483023655
0.76,-1.1257013909905165,3.1545991222401675,0.00022105203010387546,-0.007551352611606467,0.02291091534072945,0.00966652409882572
0.7666666666666667,-1.1024571360858832,3.1009111512575234,-0.0010550918568738928,-0.005999833811585152,0.02135140142035781,0.009343240038366106
0.7733333333333333,-1.0799117078961817,3.016780697878899,-0.0020817194185791033,-0.004715902957256854,0.019224192357058162,0.008637026838956218
0.78,-1.0584267631739201,2.8958211168335732,-0.0028358119487308267,-0.003696981906693694,0.016878256708498414,0.0077970959082894675
0.7866666666666666,-1.0387301530479611,2.7119349674422963,-0.0033274347547288213,-0.0029283418430348716,0.014624597021114785,0.00699999590668284
0.7933333333333333,-1.0206531493143847,2.481557562486664,-0.003620408804101738,-0.002346430157903308,0.012580354289770283,0.006307849416139357
0.8,-1.0009333690068845,2.320977699621996,-0.0037900392301036833,-0.001824144431523247,0.010448923279172516,0.005627930903348153
0.8066666666666666,-0.9794998916140195,2.2258962468930483,-0.0038156491032013615,-0.0013754447136878158,0.008314113164437305,0.005002321833687442
0.8133333333333334,-0.9570449121358063,2.1627941314701613,-0.0036910380962349417,-0.0010210258675600874,0.0063258872960713745,0.004484912637823535
0.82,-0.9338027186420116,2.1193361595639666,-0.0034290180560307615,-0.000761081554326867,0.004553954802203701,0.004096612299007287
0.8266666666666667,-0.9097688161362616,2.0902845299624535,-0.003034735668104318,-0.0005998401054208892,0.0030471463480218524,0.0038575460878710515
0.8333333333333334,-0.8850777300191471,2.0713693576824777,-0.002524977944256,-0.0005342324177654991,0.0017943421439951975,0.003767703504670076
0.84,-0.8598107799653487,2.0593829158209833,-0.001895567176475097,-0.0005689777874343014,0.0007654344999010396,0.0038384012969499203
0.8466666666666667,-0.8339548701527913,2.0527287636625413,-0.0010903402001597702,-0.0007345376184756702,-0.00007689232401772499,0.004125170879090501
0.8533333333333334,-0.8074805675483634,2.0507926278135145,0.00019074347136055877,-0.0011976150251489911,-0.0007900629401947996,0.004907726136012388
0.86,-0.7804017248248784,2.052503053034243,0.015361591288954892,-0.009637393563489222,-0.003115345409710862,0.01815231568443978
0.8666666666666667,-0.7527712977088988,2.05702194069752,0.0044134231926272645,-0.002976559733804767,-0.001950016737209119,0.008244856489058757
0.8733333333333333,-0.7245988602817923,2.064250954937013,-0.003082272184553552,0.0016105309571609711,-0.001211748422944132,0.0013944161912811204
0.88,-0.6957604989105575,2.0738681739013445,-0.002874317401165946,0.0017185390494216387,-0.001424891947383385,0.0014499071743382839
0.8866666666666667,-0.6664088652021822,2.0853700220128557,-0.0027202090151805082,0.0018316023676925907,-0.0016049881484702976,0.00151891146285095
0.8933333333333333,-0.6363930381503855,2.099143801184328,-0.002638520253000595,0.0019536781374092436,-0.0017658474209058374,0.0016067095120384305
0.9,-0.6057897229990121,2.114495053866752,-0.0026212466499857976,0.0020863395462351352,-0.0019264132013688587,0.0017134211891128158
