# n,energy,berry,bcd_x,bcd_y,qmd_x,qmd_y
0.00000007407407407407407,-3.1559760787603826,0.000000001205825926615993,0,0,0,0
0.006666666666666667,-3.108958038613209,0.00011592533313757403,0.0001446954824352991,-0.0002506199272036229,0.00028768856727153343,-0.00016609707175699524
0.013333333333333334,-3.0626540771861634,0.00025840261831826337,0.00041327838906350537,-0.0007158191675281989,0.0007824882830300679,-0.00045176982084514346
0.02,-3.0170779953908284,0.0004465859422074034,0.0007600666417835135,-0.0013164740407072778,0.001355392992254179,-0.0007825365089356919
0.02666666666666667,-2.972236439859762,0.0007015082405536842,0.001156437909040655,-0.002003009214257087,0.0019024292734944866,-0.0010983680531662784
0.03333333333333333,-2.928922875410202,0.001041036249602166,0.0015695668125035058,-0.0027185694651299676,0.0022871632439375113,-0.0013204943145679238
0.04,-2.9060104813807492,0.0012897559187572754,0.0018430903139813408,-0.0031923260667537064,0.0022199519058680437,-0.0012816898304409444
0.04666666666666667,-2.883640063498039,0.0015692989438143594,0.0021526015895895465,-0.0037284153216225577,0.0019096922629431403,-0.0011025613420795799
0.05333333333333334,-2.8614511311850253,0.0018834311664352658,0.002484314835018227,-0.004302959516248603,0.0013677257502726524,-0.0007896568300975635
0.06,-2.8394471515645687,0.0022347678898414517,0.0027501920174714503,-0.004918500262924879,0.0007100695509983002,-0.00030182214972569634
0.06666666666666667,-2.8176425342259863,0.0026254395652500935,0.003036918597861824,-0.005535201861953567,-0.00018911272747580606,0.0003949093651673653
0.07333333333333333,-2.7960340517360995,0.003056551700101947,0.0034587220140993523,-0.006116206764788718,-0.0016328437728973183,0.0012466575768747795
0.08,-2.774617408742026,0.0035304176007392414,0.0038037730042908653,-0.006700785732197799,-0.0034179749406324576,0.0022850912944806555
0.08666666666666667,-2.7533938794265995,0.004049755453428198,0.004125868916386577,-0.007253433420929985,-0.00564006748205473,0.0035701802143807415
0.09333333333333334,-2.7323616361572296,0.004615491559712102,0.004422294594648811,-0.007762393038363682,-0.008385242121354445,0.0051421583360950224
0.1,-2.7115372217842415,0.005229588918560312,0.0046883396896773505,-0.008217161533443013,-0.011750148898413972,0.007049252246001797
0.10666666666666667,-2.6909256232693535,0.005894369818061394,0.004920433943613455,-0.008610123325059824,-0.015852008598026216,0.009351436368523118
0.11333333333333333,-2.6705114821251454,0.006609788477913167,0.005117505004232087,-0.008938208478664788,-0.020837901381999178,0.012125515061379403
0.12,-2.65031340150858,0.007376264586283202,0.005281995674483616,-0.009204458470347756,-0.026878705267004525,0.015462240345519854
0.12666666666666668,-2.6303359400873068,0.008195015953163713,0.005422674318158141,-0.009422771687297318,-0.03418467334177497,0.01947566813368103
0.13333333333333333,-2.610586149252792,0.009064452094219775,0.005651236103905111,-0.009449517884744773,-0.04271911352190837,0.024205963637277665
0.14,-2.591076712728085,0.009982906344899583,0.0058660015696836995,-0.009627646604346186,-0.05329456987938158,0.02996279173086555
0.14666666666666667,-2.5718131406375657,0.010947719258849428,0.006071753380266179,-0.010109324320301814,-0.06634158672000387,0.03700010557766436
0.15333333333333332,-2.552809294682655,0.011950805640183526,0.006475998287010883,-0.010764211956367191,-0.08177734128470601,0.045431073099110084
0.16,-2.534085595182078,0.012982543589115792,0.00717654645576087,-0.011903964951690762,-0.10025378813671924,0.05556893805845041
0.16666666666666666,-2.515661504865547,0.014034621426784247,0.008356017789150638,-0.01385562906417941,-0.12227768247367489,0.06771614193345618
0.17333333333333334,-2.4975683859360065,0.015088460869689731,0.010267905607985588,-0.017061310490636326,-0.1483384780890409,0.08217055812867377
0.18,-2.4799417458086825,0.01611581729985232,0.013543739484040349,-0.022614893207852135,-0.17969903600227255,0.09968277487055249
0.18666666666666668,-2.4628865321825755,0.017075339845404467,0.018797177535637633,-0.031582814609646036,-0.21647214644164978,0.12034573982579026
0.19333333333333333,-2.446863549559837,0.017944499259933997,0.026261827417234228,-0.04437621647968721,-0.25783853155199427,0.1437161020997538
0.2,-2.431063364429532,0.018661153324827134,0.035702452897906974,-0.06058324928648658,-0.29172168141021293,0.16280321589398988
0.20666666666666667,-2.414634222218606,0.019099047783815572,0.047492346967299905,-0.08084264626699658,-0.3019351732009356,0.16824901118507554
0.21333333333333335,-2.39777230961428,0.018871780142715566,0.06407068299838081,-0.1093797080259457,-0.2610286713904992,0.14424222539367013
0.22,-2.380947807243419,0.017408022703798754,0.08670557836482692,-0.14840069520420796,-0.14895770720810259,0.07922911974789201
0.22666666666666666,-2.3645332732214888,0.013430170710093088,0.11352245995607058,-0.19466799333334583,0.055058252342794656,-0.03878713943690247
0.23333333333333334,-2.34853937773561,0.006050156522521974,0.1412302639447361,-0.2424858513438799,0.32796700784710114,-0.19650522884114968
0.24,-2.3327782958844088,-0.0049494170894601106,0.1671932248137837,-0.28729068174178296,0.639174446330903,-0.37627131743930864
0.24666666666666667,-2.3149935928493157,-0.014699526360039728,0.19265364048970982,-0.33122538369135324,0.9279805162248544,-0.5430371537782052
0.25333333333333335,-2.296439737897763,-0.02488630514837724,0.2161959550037638,-0.37186453793915625,1.2047086374106715,-0.702786037394132
0.26,-2.2774580158842896,-0.03558803295330875,0.2382510441857315,-0.40996991487101425,1.4712613526066884,-0.8566600370135182
0.26666666666666666,-2.258445053434299,-0.0466203287172452,0.2597617034146789,-0.44718502308894764,1.7271736291632804,-1.004461589472061
0.2733333333333333,-2.2403111002134946,-0.05703546186203878,0.2810934265161697,-0.4841415239905445,1.9658029640864092,-1.142448534663341
0.28,-2.2217805393892354,-0.06903658664495177,0.30249006824091734,-0.5212494244947224,2.190061576262075,-1.2724507576681394
0.2866666666666667,-2.201740660728077,-0.08519415328036847,0.3255397855657662,-0.5612416765214489,2.390754845740258,-1.38950018309192
0.29333333333333333,-2.1823528869349818,-0.10029886897139165,0.34126699626628554,-0.5885167392756605,2.606373402825482,-1.5161529344078457
0.3,-2.1652576758672466,-0.10918102899920545,0.33657271829930446,-0.5803381613750723,2.9397018351740805,-1.7118242765270162
0.30666666666666664,-2.149657940352517,-0.11465535758417486,0.31027112135296836,-0.534623962610717,3.4675746153505225,-2.0211649686334265
0.31333333333333335,-2.1312711573970122,-0.12460638883949768,0.2919034696619708,-0.5023015155186354,4.194875691181894,-2.450979570556379
0.32,-2.111310594510738,-0.1457885948749923,0.3073289780049536,-0.5277725533483983,5.084143303822495,-2.985483405296228
0.32666666666666666,-2.0899481044200963,-0.19482859720696097,0.43595666173041536,-0.7384875206247201,6.267804417623411,-3.7277181167750424
0.3333333333333333,-2.067282751396499,-0.33176080233387095,1.026564593706703,-1.8410223272867157,8.561649514514027,-4.878058946610299
0.34,-2.043598470465672,-1.0315465811968976,3.2134873949752247,-5.59384259464058,16.50487214728476,-8.790636234787538
0.3466666666666667,-2.022441000279237,-1.6403935287084335,-21.73260350219931,45.993350202120126,21.396065372518322,-10.406060520333213
0.35333333333333333,-2.0042786804614767,-0.10487749792280658,-2.4424956504398256,4.418781739043995,7.52114066440816,-4.133583515679802
0.36,-1.9851762996206808,0.07471003096145863,-0.8390250544905788,1.5747802880622208,3.7139141983296353,-1.8883404099558039
0.36666666666666664,-1.9653503926013698,0.15890847988950077,-0.37082820174682285,0.6907582536004869,1.7816950131180076,-0.8453696884233014
0.37333333333333335,-1.943632437867929,0.22023982378869733,-0.17424270840646944,0.31593984566377464,0.6924890055311526,-0.3323761360247611
0.38,-1.918198568463268,0.2772006508767438,-0.060825311685776415,0.10926263158818393,-0.023891039256211763,0.03385201104184349
0.38666666666666666,-1.8957520687194385,0.3246139535630375,-0.013693028228871057,0.02470313783667655,-0.47395557300082075,0.27725384229435684
0.3933333333333333,-1.8783282745604204,0.35803338992414335,-0.008680770149222534,0.015088773285187092,-0.8543865916306973,0.4892881142531243
0.4,-1.8618526581767192,0.39145033935506257,-0.021922693867464565,0.037809119822494235,-1.2201822588157607,0.6949596757496643
0.4066666666666667,-1.846540230232083,0.4255618045390769,-0.04653863845469522,0.0775650251930855,-1.4492858458897806,0.836444978155954
0.41333333333333333,-1.830979276531471,0.4635959840962976,-0.07344580006436671,0.12387206455636676,-1.6407393826493397,0.9498659708832161
0.42,-1.8152251436332467,0.5064003635546284,-0.10205935886424732,0.17486275644587343,-1.8151979830008256,1.0488370155188964
0.4266666666666667,-1.7996056562840363,0.5542793870894621,-0.13240731770323766,0.22808455419415402,-1.9970256048974362,1.1540833385066243
0.43333333333333335,-1.7843859773731765,0.6105284593982674,-0.16312412852784788,0.28179111094292797,-2.1820514143259193,1.2612778540960774
0.44,-1.7703874386454457,0.6673547489823795,-0.19118287970755546,0.3308157899544544,-2.342767865186051,1.3543904174524377
0.44666666666666666,-1.7572274285614438,0.724846268105732,-0.21740656322914267,0.3766118914265096,-2.4854823627623515,1.4370730676806425
0.4533333333333333,-1.745206943513657,0.7910664467298668,-0.24152210667361138,0.41868607428097027,-2.587904093898288,1.4964270490371518
0.46,-1.733526509868134,0.8640487377558983,-0.26539211042110405,0.4603127632112065,-2.6805130300769515,1.5501020821976446
0.4666666666666667,-1.722492793358273,0.9498913608801348,-0.28879514144487745,0.5010883984861015,-2.7544597798762895,1.5929767684504446
0.47333333333333333,-1.7122786717652838,1.0537941626374272,-0.3112771999858639,0.5402330938688025,-2.812558745751479,1.6266963793115803
0.48,-1.7029481079342144,1.1771665958973139,-0.3327664114887224,0.5776195675113386,-2.8535731345909143,1.6505464341801794
0.4866666666666667,-1.6942149243993143,1.3158617612740473,-0.35246129258480635,0.6118794984506546,-2.8862162298299725,1.6695724983495044
0.49333333333333335,-1.6870355319624453,1.4944114797944512,-0.3674891054316525,0.6380072659238701,-2.8970855210807223,1.6760513227561873
0.5,-1.679856139525576,1.6729611983148547,-0.38251691827849865,0.6641350333970857,-2.907954812331472,1.6825301471628704
0.5066666666666667,-1.670937457475447,1.8091353879048362,-0.3976304905620631,0.6904215234886368,-2.903572851152135,1.6803835583918767
0.5133333333333333,-1.659556205769952,1.8853122711931023,-0.41286548516938154,0.7169327406759817,-2.87759743529203,1.6660246959463858
0.52,-1.6476761485534637,1.947488533939256,-0.4257621120758002,0.739408788675494,-2.799420485634252,1.62203897367266
0.5266666666666666,-1.635473742723414,2.00061702050555,-0.43714758970706236,0.7592771445695342,-2.6875087602480723,1.5589071574217714
0.5333333333333333,-1.6233462561735343,2.040871764913214,-0.4428952427629346,0.7695380925731952,-2.5753604474514047,1.4972982404604975
0.54,-1.6110031561075437,2.0782917051790606,-0.4491081530140375,0.7807818217643131,-2.506546891775603,1.4619349820559684
0.5466666666666666,-1.597901428285021,2.109716598236175,-0.45853035851545154,0.7981438432298337,-2.585949625221436,1.5158603992287825
0.5533333333333333,-1.5844660359622533,2.1354041921856526,-0.4640647472868906,0.8103998327644893,-2.7227408736706744,1.6104168143582267
0.56,-1.5710166350802397,2.157671711678081,-0.466735519992908,0.8194654554468891,-2.8846823974549585,1.724661409645205
0.5666666666666667,-1.5585015226904078,2.1774576086262365,-0.4645392037570425,0.8254672914790361,-3.0185950363403387,1.830039564474479
0.5733333333333334,-1.54615845325538,2.193708863839611,-0.44241015545393614,0.8036819309626115,-3.155479672660743,1.9400489676864197
0.58,-1.5339850273765467,2.206474773230826,-0.40062636710994903,0.754496908283235,-3.295294857427312,2.054625029533962
0.5866666666666667,-1.5202936872614126,2.168557079089564,-0.2464614139434573,0.4858329144612586,-3.5865549440553353,2.1533281578559027
0.5933333333333334,-1.5065346162103326,2.1237356361180124,0.16515451960094557,-0.23991732246754438,-4.068492716584187,2.3667655251893565
0.6,-1.493291771652036,2.087524456342254,1.0076590776166559,-1.722239472185836,-4.840708460376575,2.800130512881777
0.6066666666666667,-1.4814996960110907,2.2500335180691216,4.996847524376795,-8.64240679373729,-6.309863392007584,3.6546098121968185
0.6133333333333333,-1.4700764283997774,2.4630603568451077,9.785971971282846,-16.94495895913293,-7.956191108060537,4.616142921158431
0.62,-1.4610404099583667,4.434923703777595,3.8408890978318153,-6.650105322551873,-6.0152838397824375,3.500769876539922
0.6266666666666667,-1.4520104545745993,6.411254086354395,-2.1314561655520574,3.691981399210171,-4.06526582899631,2.3801219733572934
0.6333333333333333,-1.442271515057957,5.07342484687566,-8.038134050489592,13.921137603210882,-7.194042129685379,4.1900798547904285
0.64,-1.4322576642189482,2.4505174766114743,-13.91934915705479,24.10650456492321,-12.292140444015544,7.136391392426549
0.6466666666666666,-1.4188036294584019,0.9966913187615507,-18.686318860207383,32.36211102542527,-13.151723556299132,7.634860347687844
0.6533333333333333,-1.4031852986725761,-0.18991946836519186,-16.346044563486576,28.339703477410175,-9.566824816162473,5.4473784919949875
0.66,-1.3865235652481516,-1.859388568590317,2.0916066540370486,-3.5075592682353327,-1.7980230183518704,0.634009430124758
0.6666666666666666,-1.3692282411747774,-0.8760223803093721,41.06766045319254,-71.10278002833846,-6.0109107724400275,3.4043698515457845
0.6733333333333333,-1.352170085312351,0.025577067746367588,22.739796592785204,-39.37695673181805,-2.8366912112501343,1.6503844774517886
0.68,-1.3344252303862039,0.33292334653201466,9.032395948568183,-15.641296001696608,0.5003866405799946,-0.24926529188174584
0.6866666666666666,-1.3160593019250186,0.31433525721712163,4.118697623634999,-7.133798645130763,2.7653228961874063,-1.5453761658975878
0.6933333333333334,-1.2973064439323696,0.24228645366187762,2.4906997048617923,-4.316024759435296,4.190632849290803,-2.365797671052809
0.7,-1.2777414164228047,0.154930546993661,1.9491125478853037,-3.3813447548509385,5.131439248156879,-2.911660720267707
0.7066666666666667,-1.2552371748119162,0.08339801190405274,1.979025674950985,-3.43215411565758,5.666759598551874,-3.231749096734504
0.7133333333333334,-1.2299815936444056,0.024604100172815592,2.7116741503587596,-4.694873890256324,5.982468857129748,-3.4256658730571448
0.72,-1.2058324597045063,-0.08258656178081182,4.7396470969535,-8.207845600356498,6.302322043056561,-3.6150447821052687
0.7266666666666667,-1.1831187256295213,-0.31414000515738716,10.594702322459304,-18.34933503695372,6.760918484197986,-3.8865641850213017
0.7333333333333333,-1.1632624283702697,-1.0126557419948465,29.37176090856446,-50.87222472439912,6.20794401696864,-3.5743494974187087
0.74,-1.1432744447030694,-2.1151151072085215,2.5726843111745055,-4.454798395397013,-0.7704654228584324,0.44739698911759707
0.7466666666666667,-1.122588526819947,-0.20416057832799117,-23.079274906433984,39.97591700722098,-0.4665821459070607,0.26516274621548064
0.7533333333333333,-1.1008289369235376,0.3056714287506628,-7.521209295130912,13.028955868131437,-2.8800409481508007,1.6529655042288098
0.76,-1.07852158160815,0.4203260085795454,-2.588020025897928,4.485003221843564,-3.7462256814184665,2.1494707224214658
0.7666666666666667,-1.0559666634939342,0.4795411006843245,-1.1893212257768555,2.0631111489171623,-3.9000145456096567,2.2368058959742667
0.7733333333333333,-1.033399297713734,0.5207844095554354,-0.6044489961066277,1.0508778565603805,-3.790311007517863,2.173634205369928
0.78,-1.011016573231972,0.5516799104653581,-0.31687912765773196,0.5535797280469203,-3.5422327500217747,2.0315999726220744
0.7866666666666666,-0.9890103144593255,0.5743371288802732,-0.15773774309784852,0.2786493385664418,-3.209641819102931,1.8412816310539233
0.7933333333333333,-0.9676994099925877,0.5879817336408271,-0.060354703209457454,0.11055981040568597,-2.822431864867028,1.6195710039421514
0.8,-0.9479559106159682,0.587408837677589,0.006775594707646694,-0.00528841048269188,-2.4181788652548644,1.3878986744226403
0.8066666666666666,-0.9289855061448364,0.577888223357639,0.05765214959816971,-0.09311329382476938,-2.041766211345643,1.1721672299610129
0.8133333333333334,-0.9083613385437732,0.5740548014710983,0.08884249548780643,-0.1469418926495621,-1.7230383893069001,0.989754947406851
0.82,-0.8863851554301038,0.5744452116810937,0.09680650165077131,-0.16066316049833962,-1.4540218891406291,0.8359771084015615
0.8266666666666667,-0.86352788438252,0.5767986194412131,0.08966046170428145,-0.14833902264748802,-1.2307285122287053,0.7084609756478348
0.8333333333333334,-0.8399446643153643,0.580479460251052,0.07343005247633372,-0.12039820784404212,-1.046810539683275,0.6035156646288979
0.84,-0.8157125471965018,0.5853148094122314,0.05195299195876872,-0.08347861380668765,-0.8956938730694053,0.5173398867525153
0.8466666666666667,-0.7908838344845154,0.5912537711567545,0.02754774244285474,-0.041595940670376905,-0.772023955249457,0.4468463840965426
0.8533333333333334,-0.7654672703581044,0.5985765913946178,0.0015986769248293358,0.0028004532110200283,-0.6726644697262236,0.3902259590740905
0.86,-0.7395366267190913,0.6071492178444758,-0.024911313016335382,0.047837589078567694,-0.5904693050916098,0.343377968728102
0.8666666666666667,-0.7131428036465567,0.6170785053666674,-0.05151303903306135,0.09167992572567969,-0.5232025295473786,0.3048837061118746
0.8733333333333333,-0.6862512019233243,0.6286243190549782,-0.07781977102661877,0.1471626917451436,-0.4583385915420071,0.27019263977460706
0.88,-0.6589204784058038,0.642336605552902,-0.1028376809335054,0.19427848990540766,-0.4096217992191047,0.243836100203305
0.8866666666666667,-0.6311811638039897,0.6581402342764611,-0.12167807746860154,0.24420731375597962,-0.3641767186494337,0.22430733548837684
0.8933333333333333,-0.6030716080779348,0.676625520351379,-0.16284231759356624,0.2795665080493076,-0.33849674253063894,0.1969263652694476
0.9,-0.5746041248353159,0.6984269050955058,-0.18725064682537312,0.3212262206374818,-0.30907457679802824,0.18004288193163986
0.9066666666666666,-0.5459242644149044,0.7238092243586237,-0.20958015624831472,0.3592363289317724,-0.2833433786034346,0.16527172564460796
0.9133333333333333,-0.5170186438291201,0.7545421080193169,-0.22778906245411967,0.3900072901198339,-0.2611469518976707,0.15252810126630678
0.92,-0.48806452134835115,0.7906504975243642,-0.24018257824296185,0.4105651248715022,-0.24155745694523467,0.14128336149652568
0.9266666666666666,-0.4593096340186705,0.8339357355004828,-0.24296595362781478,0.4142263038489918,-0.22467040906214453,0.13159331689236473
0.9333333333333333,-0.43100007530624396,0.886674734502872,-0.2309536693923159,0.39177413205107287,-0.21130333781731628,0.12388210375171708
0.94,-0.40364516762823444,0.9491473507735204,-0.2020853341201411,0.34012613459176005,-0.20495531655023433,0.11922912893827234
0.9466666666666667,-0.3783205559913353,1.0230740694245624,-0.1366483421111831,0.23668187130662588,-0.19511403488923082,0.11264914056597071
0.9533333333333334,-0.3576410738228523,1.0974525475727996,-0.07717796669594787,0.13367615954224232,-0.20765982561986854,0.1198924562215039
0.96,-0.34427647115278975,1.1430667068875875,-0.05268115097087728,0.09124643008276379,-0.2257857091790477,0.13035743997369403
0.9666666666666667,-0.31145868380365127,1.1047658514668228,-0.04184495151903086,0.07247758207121585,-0.23221349406598796,0.13406852330846172
0.9733333333333334,-0.25220442457281084,0.8785476096514104,-0.025498860755457396,0.044165322363577425,-0.22077752193305092,0.12746596171906646
0.98,-0.19588495162897143,0.6286963039878586,0.013012414167673325,-0.022538162467537273,-0.20434364741252492,0.11797785984081148
0.9866666666666667,-0.14796190898845754,0.37306874495606224,0.05784609830823502,-0.10019238128948513,-0.15320635780133235,0.08845373191816133
