# n,energy,berry,bcd_x,bcd_y,qmd_x,qmd_y
0.00000007407407407407407,-3.0743016687011298,0.000000002724194744420662,0,0,0,0
0.006666666666666667,-3.0497560781016726,0.0003116335335983738,0.00041944191871667684,-0.000000000000000002039739654506197,-0.000000000000000013433975882901167,0.00010543582757538732
0.013333333333333334,-3.0268031822494126,0.0006448719041876817,0.0011309775809945246,-0.000000000000000002551541863705921,-0.000000000000000010704529124135278,0.0002311790499820131
0.02,-3.00403882206686,0.000997404791850373,0.0020475402892939946,-0.000000000000000003969703559242522,-0.000000000000000012284801675567494,0.00037622352292289224
0.02666666666666667,-2.981465849100116,0.0013702837347794445,0.003122328644952581,-0.000000000000000002046509569606683,0.000000000000000015625797115232655,0.000530309346256127
0.03333333333333333,-2.959079859091788,0.0017642530031201338,0.004321132320861439,-0.000000000000000010131378325017033,0.000000000000000035688788724181966,0.0006836648607190527
0.04,-2.936903237609128,0.0021795969554178015,0.005612760609514395,-0.000000000000000019530299668133978,0.00000000000000004912951257041909,0.0008261030399695259
0.04666666666666667,-2.914931985708271,0.002617919182319741,0.006969290207408531,-0.000000000000000024693177121545544,-0.0000000000000000006934235887930863,0.0009469853153127253
0.05333333333333334,-2.8931540701269842,0.0030805227283505214,0.008365123456555271,0.000000000000000005580162396889612,-0.00000000000000006469067057946341,0.0010329774271421396
0.06,-2.8715716647559253,0.003568496614027642,0.009770342783940705,-0.000000000000000012012092449726325,-0.0000000000000000031331414968858303,0.001069988250185961
0.06666666666666667,-2.850198572742848,0.004082852428612275,0.011155678642395566,-0.000000000000000024434311482868187,0.000000000000000037987931141624013,0.0010445126423451506
0.07333333333333333,-2.82904105570703,0.0046225711286252925,0.012493852718353236,-0.000000000000000025507224481436196,-0.000000000000000023455953304041404,0.000939900391358168
0.08,-2.808071020763787,0.005190058581888771,0.013759284161153526,-0.00000000000000001439475357604246,-0.00000000000000014062601195508682,0.0007366367825421011
0.08666666666666667,-2.78732746409498,0.005786973369639978,0.014921843468665588,-0.000000000000000037591646836503166,0.00000000000000004308505880418669,0.000412752616132753
0.09333333333333334,-2.766788826061329,0.006413121011359127,0.015865453584307642,-0.00002313608206946608,0.0008927804968376598,-0.00020508772808829875
0.1,-2.74646474890538,0.007070741960809963,0.016629690779780885,-0.00004148707087495815,0.001964731810086687,-0.0011640527295885697
0.10666666666666667,-2.7263592559653063,0.007761429810457563,0.017422296890162354,0.000004104847647908539,0.0009669535510248596,-0.0020805733102352304
0.11333333333333333,-2.706492266116951,0.008486318632125237,0.017924677443604334,0.000015135999237902094,0.0008678525135015658,-0.003164433087144854
0.12,-2.68685362315291,0.00924475760824715,0.018161407612069577,0.000022881707869545393,0.0008088937643078655,-0.004580417780754582
0.12666666666666668,-2.667446650565744,0.010042577642789667,0.018114310157911314,0.0000302171667054144,0.0007408300429072531,-0.0063567760260735025
0.13333333333333333,-2.6482782264530442,0.010879437873257932,0.017759460724254272,0.00003765274922490696,0.0006456370458267205,-0.008551817459790804
0.14,-2.6293704045435997,0.011759757390541173,0.01707606672215778,0.00004535790606993872,0.000512646358630882,-0.011237414312579023
0.14666666666666667,-2.610715883425534,0.012683333113276447,0.016048331679591653,0.0000534711598404405,0.00033443210920793904,-0.014504711783201433
0.15333333333333332,-2.5923251035691273,0.013657118437390942,0.014670272158784477,0.00006214514407735445,0.00010591082634216527,-0.01845876315162799
0.16,-2.5742420161791792,0.01467759620889413,0.012939322991228639,0.00007157975933761766,-0.00017758786556361242,-0.02325375186075066
0.16666666666666666,-2.556481467077047,0.01576464211766868,0.01087156943317027,0.0000820977996507797,-0.0005202584939825025,-0.029138672990195708
0.17333333333333334,-2.5390407085156124,0.016914625481979327,0.008570486026812003,0.00009384566043985746,-0.0009149761192333997,-0.036237879800204154
0.18,-2.5219426677727084,0.018137535678239065,0.006161727674617734,0.00010693182587095075,-0.0013565241995554173,-0.044759609052610165
0.18666666666666668,-2.5052103224486024,0.019435184926004528,0.003829905758197429,0.00012134286267582804,-0.0018380303331345278,-0.05491892363088922
0.19333333333333333,-2.4888645856804024,0.020816811350546485,0.0018157947164136707,0.00013693544064921677,-0.0023518003918061308,-0.06691786920019413
0.2,-2.4729210797414125,0.022297551814651064,0.00037892377208476535,0.00015347899682714367,-0.002890159791604153,-0.08091356986224048
0.20666666666666667,-2.457603149263737,0.02393272875105711,0.00047921961701343846,0.00017062628053808414,-0.0034469179794228825,-0.09799278320321701
0.21333333333333335,-2.442894555472611,0.025725884894819674,0.002728123676955788,0.00018745712779408418,-0.004004789023539468,-0.11779734465997965
0.22,-2.428846434011109,0.027707845195277116,0.0074829121279638075,0.0002035285475629904,-0.004554632319007355,-0.14006872757896416
0.22666666666666666,-2.415620699351452,0.029936422644602882,0.0154740262696821,0.00021838109965147758,-0.005088420477842831,-0.1650919440745531
0.23333333333333334,-2.4040151605694877,0.032699641260737836,0.027281563589216767,0.00023041216417186533,-0.005571013267982958,-0.18910967016809668
0.24,-2.3927321577791587,0.035494634483484,0.03989987026704743,0.00024176403288241464,-0.006044304933559632,-0.21161225647280577
0.24666666666666667,-2.381300057272855,0.03693111327027177,0.05306183717237406,0.0002513145999004788,-0.00653792419519464,-0.2111458873108751
0.25333333333333335,-2.3692088231433925,0.03848143423287372,0.06480643168588632,0.00026041466624047245,-0.007064556020992819,-0.21170720541132645
0.26,-2.3555944018452615,0.04029483226416266,0.07327563049117647,0.0002684736737902534,-0.007667476344861036,-0.21464339864553966
0.26666666666666666,-2.3403181394794847,0.04281625312988077,0.07799418654434127,0.00027370396026215135,-0.008351298369580056,-0.22735858346718474
0.2733333333333333,-2.323891843954796,0.046265407565926196,0.08508474042399623,0.0002755238353986475,-0.009078731951664781,-0.2513450012686782
0.28,-2.3063232679528554,0.05155242475220463,0.11330857740932429,0.00027256724810509916,-0.009814456596068194,-0.294055833651109
0.2866666666666667,-2.287663962670835,0.06098283961063132,0.2391534471505913,0.00026345811498761806,-0.010458772623617003,-0.3702194309701319
0.29333333333333333,-2.2680203856301233,0.08176293271636027,0.8185302715800613,0.0002470941983326293,-0.010760288513843048,-0.5022508206913127
0.3,-2.2477904067580585,0.1523027607195499,3.2687500178531876,0.00022337163657837962,-0.01016678243502406,-0.5446484647348458
0.30666666666666664,-2.2270952005617475,0.358025976221653,5.071546204905446,0.00019264598967742985,-0.007621224179203256,0.3303553553799332
0.31333333333333335,-2.2034448601403502,0.5296276939632113,-1.126634192092397,0.0001476286599606462,-0.00032108794569226,2.033704120518412
0.32,-2.1767603759778096,0.24263629572559411,-3.8104128108072786,0.00006602331012963848,0.01494967670293118,4.564057961290914
0.32666666666666666,-2.1475188904947227,-0.03273622590563575,-1.4287418727058367,0.0000018971946553204258,0.027663529934265258,6.2624070050082095
0.3333333333333333,-2.116541062214231,-0.2925721604195537,0.35941801565053105,0.0015050502822582252,-0.016656957398242817,6.227041397981622
0.34,-2.0703033364770147,-0.517628934047506,1.2817909065905164,0.002451529781050417,0.0716093435514845,4.7097737502018235
0.3466666666666667,-2.0089549252859453,-0.48247512287156624,0.9225583259352444,0.005947300257941713,0.1049266388786866,3.081309171401829
0.35333333333333333,-1.9582134224198418,-0.40653659206381315,0.6368474530384086,0.0042831785767319846,0.07209735449682865,2.0378173276025784
0.36,-1.9261876314862796,-0.36391118927410687,0.5205472678358664,0.00340803557558008,0.05369941294094971,1.499364328511289
0.36666666666666664,-1.9066325413330572,-0.3461701728332198,0.45987180300799113,0.003093197518337974,0.04377734248970981,1.1783373214958799
0.37333333333333335,-1.8907216694378988,-0.3270865024554835,0.41476452934578173,0.0025868235362574137,0.037625378472192945,0.9365614082668207
0.38,-1.8772006913560164,-0.30777666077854066,0.3788887970246692,0.002295560299553671,0.0330600153188956,0.7666191376773637
0.38666666666666666,-1.864202116150126,-0.29012953253051554,0.3487696300936584,0.0021239845164796067,0.02652315116806789,0.6173792585538741
0.3933333333333333,-1.851542253187306,-0.273526131733788,0.32214787606442596,0.0020041150611008205,0.01951523622257176,0.48055509447095884
0.4,-1.8396184445544423,-0.2589098991623625,0.30120330864937594,0.0017846930204490723,0.01808945014930836,0.3624694344516325
0.4066666666666667,-1.8280414758315493,-0.24486060355701755,0.2838800432010497,0.0035678240698026487,0.05377208545783743,0.25497066373619787
0.41333333333333333,-1.816966955510408,-0.2316325991707979,0.2718027639646183,0.008251946529231913,0.14321170339385972,0.16280855254968862
0.42,-1.8064756840928309,-0.21818475330267095,0.2607671186340066,0.010851254123047249,0.16725650712788676,0.07222238237197061
0.4266666666666667,-1.7963733893110434,-0.20459029215671537,0.25042615313894007,0.012060170294410585,0.1476886188003947,-0.01731277128766112
0.43333333333333335,-1.7870750621476144,-0.18814492671258679,0.24376930820934176,0.011796561612520193,0.12942664347869948,-0.11089987919348138
0.44,-1.778274973532519,-0.16993278560918368,0.23939560359598375,0.01062039298602816,0.1119739746332862,-0.20699808301341163
0.44666666666666666,-1.7699620391392068,-0.14730670385339542,0.22992103063937536,0.009697677055197794,0.09565850927422552,-0.29623972983050567
0.4533333333333333,-1.762588463618645,-0.11616940710611191,0.21061066909116988,0.009263683232985903,0.08153586527903944,-0.37226016790274546
0.46,-1.7552148880980833,-0.08503211035882814,0.19130030754296426,0.008829689410774008,0.06741322128385327,-0.4482806059749859
0.4666666666666667,-1.747537542019452,-0.07128746902633372,0.16701308566014425,0.007421748906509243,0.05087947133911637,-0.4360738119059614
0.47333333333333333,-1.7396781754219819,-0.06796457555086177,0.13974370939721353,0.0054302157015055285,0.03290097718117445,-0.3710009116805759
0.48,-1.7319318863908881,-0.06988974848392228,0.11352453796245021,0.003612293275240487,0.01633471699027078,-0.30623742958721734
0.4866666666666667,-1.725540847736553,-0.13471372800916082,0.09989221761281707,0.0038751202039087698,0.016694277519017944,-0.24518236688634798
0.49333333333333335,-1.7191498090822181,-0.1995377075343988,0.08625989726318402,0.00413794713257705,0.0170538380477651,-0.18412730418547918
0.5,-1.712758770427883,-0.2643616870596368,0.07262757691355098,0.004400774061245331,0.017413398576512258,-0.12307224148461038
0.5066666666666667,-1.7046946252187436,-0.2922778628758762,0.07562321253975615,0.004825449528510112,0.018330982872390676,-0.05630687468379439
0.5133333333333333,-1.6965298082350913,-0.3179732751178612,0.07961936174939174,0.005259863514541684,0.01928214377622397,0.010802084367674575
0.52,-1.6874338933038957,-0.32049975114272733,0.08286893455403488,0.005794136232283407,0.0205544431274245,0.08375008154763056
0.5266666666666666,-1.6773699530278041,-0.29893840962741525,0.08534232169116449,0.006432228084692611,0.022160617295009635,0.16276869343907072
0.5333333333333333,-1.6667474688667971,-0.26205597380563556,0.08565429269362662,0.007144516237369822,0.02401854846042837,0.24332661787681645
0.54,-1.6555668874773208,-0.2098646956520439,0.08380657600295237,0.007930941357008134,0.026128035298612445,0.3254226239032124
0.5466666666666666,-1.6437837970127995,-0.13750280700860235,0.07736483575645554,0.008771805983436567,0.02847395645186514,0.40500876879451253
0.5533333333333333,-1.6317230535721743,-0.0555656429163697,0.06866413122840771,0.009633322399176115,0.030921714559933113,0.4830636393474931
0.56,-1.6190075655501228,0.0543605408291064,0.05189591975322262,0.010457881668215685,0.03347214549500762,0.5502721526628521
0.5666666666666667,-1.606033081414132,0.17913301801682047,0.030669541188722713,0.011187264257411633,0.03593876310687079,0.6075624788658116
0.5733333333333334,-1.5927653890365758,0.32071291184003736,0.004396093334347755,0.011808897790027324,0.03831049606295787,0.6536244736528882
0.58,-1.5790793086301786,0.49443693670253075,-0.029961827592215075,0.012045022287101177,0.04020102038220754,0.6682264167616184
0.5866666666666667,-1.5652217673793178,0.6877521456321711,-0.0663426373238685,0.011966157556631815,0.04167026045867227,0.6589415609289694
0.5933333333333334,-1.5512000392738468,0.9021431229135214,-0.10386887746404089,0.011535016810482647,0.042667823478372634,0.623069528363308
0.6,-1.537054289609103,1.153060642945579,-0.1339433464119011,0.010410472400523244,0.04275073862965987,0.5350546389028069
0.6066666666666667,-1.522965371823656,1.4307480081000716,-0.14656483999406494,0.008739503261907951,0.04237206799734272,0.40779521578600275
0.6133333333333333,-1.5089975817653114,1.7325517939755435,-0.13880877427633648,0.005276300827824037,0.0471502364894216,0.25128931657883696
0.62,-1.4953371434920757,2.0677675024550086,-0.09353314134896083,-0.0032638965641067913,0.07019261209121305,0.06645227478416721
0.6266666666666667,-1.4817263326220331,2.4737000580004787,-0.0029096371451151626,-0.0016137695773018996,0.04917183941319525,-0.15689811387945723
0.6333333333333333,-1.4689714157484945,2.9167685429041117,0.12062819641386895,0.0011259804519763495,0.023203023596687165,-0.38225954191221456
0.64,-1.4582842931962454,3.396903451588178,0.29032690312992276,-0.0012787314904888418,0.018897069655190484,-0.5829935438178128
0.6466666666666666,-1.447186075696536,3.9067401376910067,0.5082942652683278,-0.0017803717474466905,0.013208754475938823,-0.7903388788264153
0.6533333333333333,-1.4355082302825526,4.4584551767188785,0.7943185574178271,0.00040124518130685207,0.005571363624602553,-1.0070059368110256
0.66,-1.4174399541435896,5.069679527226273,1.0385967985142546,-0.0001861911627162934,0.006725510283278119,-0.9875021649975446
0.6666666666666666,-1.3920938554020361,5.32676636786284,0.5006106533897574,-0.0022629381175783814,-0.012237943106629411,-0.1560057445801324
0.6733333333333333,-1.363731042437047,5.409201326978719,-0.6078621405639315,-0.017698811276492966,0.004178568978382338,0.8560247433821755
0.68,-1.3275758974126979,5.024367990387479,-1.013801452354594,-0.02648604789840644,0.019523105928078443,1.3108128141012465
0.6866666666666666,-1.2916030025375975,4.46886534146017,-0.949086785171593,-0.028124179753881158,0.02307865407540961,1.307144343547744
0.6933333333333334,-1.2595375045678239,3.9744292854675116,-0.8719576196611184,-0.025353154555601075,0.021245026779846216,1.09987155463255
0.7,-1.230217698399185,3.5328281592753834,-0.8638938563306559,-0.021522529841406027,0.018245685919500175,0.858572090362343
0.7066666666666667,-1.2037267406576222,3.14890355237868,-0.9343227390202834,-0.017746053348269338,0.015252580977114563,0.6547306309983064
0.7133333333333334,-1.1794602308304056,2.8101511692330727,-1.0438681301042634,-0.014425892886882138,0.012670850476114704,0.5060638395946349
0.72,-1.157399149836932,2.511566248153913,-1.1650710350984315,-0.01162170631122749,0.010550918700183074,0.41098781307708226
0.7266666666666667,-1.1377141016291161,2.2457328711900892,-1.2768270676951812,-0.009297284368761224,0.008843906384707726,0.35940150961824635
0.7333333333333333,-1.1214877945920931,1.9963208677547846,-1.3692072718366544,-0.007472049785720928,0.007523802198079471,0.337065664015197
0.74,-1.106139365728333,1.7715676687766904,-1.4202161093493089,-0.005772855220703997,0.006283925113935433,0.3225656410058633
0.7466666666666667,-1.0896777945467493,1.593787389848999,-1.3939503570208027,-0.003928331140336993,0.004885174391931213,0.3052089862218847
0.7533333333333333,-1.071576911344665,1.464921493042986,-1.2869469568215441,-0.0017503682011812483,0.00305680197445339,0.2817814467311716
0.76,-1.0526910782423136,1.368987614943222,-1.1358348692453104,0.0008982749236917933,0.0003862533113282722,0.25173572390967935
0.7666666666666667,-1.0334859824888605,1.2952448283406772,-0.9678818521104676,0.0040015739774085825,-0.003381905664177701,0.215048353970054
0.7733333333333333,-1.0142123954678326,1.2384689444675927,-0.794074959558131,0.007113503393121277,-0.007863220854997691,0.17020629291717315
0.78,-0.9951551700894795,1.1948313069701386,-0.6189002461707774,0.009410990345336347,-0.0118278842278893,0.11539789796612393
0.7866666666666666,-0.9770631635549772,1.1596852071619475,-0.4389478142399109,0.01043622356100539,-0.014258605524901371,0.050395288737681086
0.7933333333333333,-0.9589362442157852,1.1350543868771639,-0.26385636303111226,0.010465254892900802,-0.01532005757634374,0.004840680967509069
0.8,-0.9407140377125975,1.1265780185731509,-0.12062715959438107,0.009814496213119457,-0.015321818870508664,-0.007338169770673326
0.8066666666666666,-0.9224977656497723,1.1327842049257069,-0.02106527474081462,0.00881148997470287,-0.014642581465596757,-0.005487104580276302
0.8133333333333334,-0.9035750827210391,1.1412968996166786,0.043479966618553835,0.007649601587311972,-0.013510167962090588,-0.008351550969399596
0.82,-0.8832002287854025,1.142488178744879,0.08179112817383864,0.006440922116315388,-0.011973086591400797,-0.013253370321399087
0.8266666666666667,-0.8619603618048547,1.1429700097957232,0.09621311460978335,0.005334635372691866,-0.01007840592930206,-0.015201696219709895
0.8333333333333334,-0.8399976768964925,1.1439355799099935,0.09047774613655438,0.004404342421554774,-0.00782828892045994,-0.014490925807472263
0.84,-0.8174076925504468,1.1458371292224325,0.06819543171174475,0.0036756965058733163,-0.005324213970797847,-0.011937086357551726
0.8466666666666667,-0.7942537798835284,1.1489509270323555,0.032517428852696276,0.003123644385970182,-0.0028846756060669203,-0.008364855754464903
0.8533333333333334,-0.7705659523604128,1.1534342440474896,-0.01410253105803385,0.0026838285072194536,-0.0010102271753106686,-0.0045216379914660605
0.86,-0.7463379232447681,1.159653382006345,-0.07010155860276872,0.0022815248275438985,-0.00016190784762193277,-0.0010227759175290066
0.8666666666666667,-0.7216729004742931,1.1673868477024356,-0.13234569838753837,0.0018578673385141182,-0.000162810903635121,0.002003447637218948
0.8733333333333333,-0.6966111850287731,1.1768911049014936,-0.1990568572062355,0.001328697247144911,-0.0007712274224837461,0.004726583564276212
0.88,-0.6712263248393417,1.1882993886755142,-0.2683661580910705,0.00031160295281923726,-0.0020270888465100806,0.007511448388717538
0.8866666666666667,-0.6454764153675466,1.2024057924328198,-0.33699613607032664,-0.0017599348803188294,-0.003918668547255764,0.011729352014498484
0.8933333333333333,-0.619506860776,1.218948547225654,-0.4091422010264281,0.005680479067375491,0.0011093077483765989,0.011257222319539475
0.9,-0.5933746850512105,1.2384422348521622,-0.4790520544069409,0.00374207045034724,-0.0030199440023813925,0.011185101732498547
0.9066666666666666,-0.5672247318103438,1.2617399259124948,-0.5344665877380668,0.005229104720983329,-0.004159731754971704,0.013880190174510667
0.9133333333333333,-0.5412192463866037,1.2894451955779984,-0.5731221801783815,0.011175766965634302,-0.008984877689736978,0.01602529254678856
0.92,-0.5155488231376533,1.3220373024999899,-0.5865337468976474,0.0018625399019137623,-0.0014421981175268637,0.020453733783167876
0.9266666666666666,-0.4905988987965537,1.359614559415126,-0.5612571974552307,-0.0030221998313629808,0.0022782098041133772,0.023248449616859526
0.9333333333333333,-0.4673696867121524,1.4003958225652378,-0.4703553463243638,-0.0037256046976357586,0.00247304312511426,0.020045342731585737
0.94,-0.44811055808453026,1.4152559183419544,-0.32327193874207905,-0.0045279428400681575,0.0027022653832728524,0.012841714765992706
