# n,energy,berry,bcd_x,bcd_y,qmd_x,qmd_y
0.00000007407407407407407,-3.0037073393470703,0.00000000004648537351881728,0,0,0,0
0.006666666666666667,-2.9796589269588427,0.000004420277831274754,0.00001819192685022208,-0.000000000000000000011657544943824539,0.0000000000000000004383004278511518,0.0000010018972370672247
0.013333333333333334,-2.9557918826531226,0.00000905373877345368,0.00005086719688130471,0.00000000000000000004039486792537348,0.0000000000000000007936503026546837,0.000002779559109101686
0.02,-2.9320974032779796,0.00001385550243716367,0.00009343444281886968,0.00000000000000000063916442173572045,0.0000000000000000004588663448486005,0.000005101876102565718
0.02666666666666667,-2.908571609909031,0.0000187445963011579,0.00014376249612886723,0.0000000000000000007967954031163702,-0.00000000000000000026633688040490706,0.000007845238664718277
0.03333333333333333,-2.885215172573029,0.000023663909993934478,0.00020034088974596774,-0.0000000000000000002287456774843066,-0.0000000000000000007028327835374512,0.000010905910964877704
0.04,-2.8620522092583407,0.00002857585313136907,0.00026151498375957485,-0.0000000000000000006047695110092476,0.0000000000000000008070486440299725,0.000014152828278292842
0.04666666666666667,-2.8390466888343067,0.00003339181999151803,0.0003251275186013235,0.00000000000000000015702489656855262,0.0000000000000000008384436331899285,0.00001742220070195751
0.05333333333333334,-2.816213929124114,0.00003796642284054371,0.00038938795557273443,-0.0000000000000000012975032031797862,0.000000000000000004872294086561159,0.000020551632978621036
0.06,-2.79354764089784,0.000042148978622485765,0.0004524211420032596,-0.000000000000000001908182011330906,0.0000000000000000060965916770966084,0.000023354227351966887
0.06666666666666667,-2.7710290486671787,0.00004604822267736451,0.0005122005400251324,-0.000000000000000002822333831106841,0.000000000000000011968348770213653,0.000025608706154957096
0.07333333333333333,-2.748703301265526,0.00004899994587464424,0.0005661022167757178,0.000000000000000008679722053937414,0.000000000000000007377436154834586,0.000027015300650561316
0.08,-2.7265365117675784,0.00005157332267649593,0.0006108215585572048,-0.000000000000000004834605990520541,-0.000000000000000007550192120628788,0.00002714469276559443
0.08666666666666667,-2.7045470522297212,0.000053038082210547055,0.0006437765405090036,-0.000000000000000009259607161926812,-0.000000000000000007975654207788123,0.00002565988249086511
0.09333333333333334,-2.6827056783752488,0.00005341464240273597,0.0006480958077937161,0.000006851021669425942,0.00010525312362861222,-0.0000630557219709089
0.1,-2.661028464931048,0.000052577214388016706,0.0006418669035259867,0.000007335273265309923,0.00017148680986402354,-0.00012044987349046378
0.10666666666666667,-2.63951825816596,0.000050432223798110057,0.0006324604210992145,-0.0000007633335267020919,0.00008059015316056409,-0.00005340016376264338
0.11333333333333333,-2.618169590511371,0.000045858240547065374,0.0005795108751823644,0.0000010928889158926282,0.00007547926165464648,-0.00006214439781886514
0.12,-2.5969833895658705,0.000040255223499950365,0.0004888630803438398,0.0000030267371018214208,0.00007551658748251922,-0.00008138176085147662
0.12666666666666668,-2.5759606633065144,0.00003243724876770168,0.0003521694922849793,0.000005189013163309366,0.00007651091114806879,-0.00010942422641813301
0.13333333333333333,-2.555086052863477,0.000021330577377850738,0.00015844316087353425,0.000007702473444495781,0.00007676582520153606,-0.00014727316470021452
0.14,-2.5343874448824195,0.000008583330070386165,-0.00010585343718677934,0.000010612074294412157,0.00007495170811223047,-0.00019692968150262661
0.14666666666666667,-2.513850454939636,-0.000007982057615011033,-0.0004619746250494761,0.000014042900451979907,0.00006941695048887612,-0.0002619396126895492
0.15333333333333332,-2.493487755214368,-0.000027656231098707734,-0.0009318213769925316,0.000018064311979850847,0.000058315343419239504,-0.0003463302996318585
0.16,-2.473270643820753,-0.00005039729275760133,-0.0015450387258753536,0.00002279726165679565,0.00003922894352293899,-0.000455789648838973
0.16666666666666666,-2.4532200289816544,-0.0000765459229214512,-0.002340998148794335,0.00002837000968734444,0.000008966912680317575,-0.0005983217910813318
0.17333333333333334,-2.4333362550717226,-0.00010833362566498584,-0.0033729416270407145,0.000034943141149032486,-0.00003670883631605623,-0.0007854005644505897
0.18,-2.413617788045985,-0.0001428138080281381,-0.004713139592650976,0.00004271402756617751,-0.00010339324610739738,-0.0010336570271631362
0.18666666666666668,-2.3940730219466606,-0.00018080622847637648,-0.006459859724331268,0.00005190930788043868,-0.00019838238830559353,-0.0013674551306764261
0.19333333333333333,-2.3746878786889076,-0.00022116748850009672,-0.008752588889375142,0.00006281208201375245,-0.00033136325017502614,-0.0018240959061082793
0.2,-2.355492838953088,-0.00026351504379513215,-0.011781533645046121,0.00007572808532952614,-0.00051453015754092,-0.002459586713552304
0.20666666666666667,-2.3364568286512353,-0.00030978404040381925,-0.01583151383608319,0.00009105552986328744,-0.0007642663658015928,-0.0033649181765228737
0.21333333333333335,-2.3176127696876936,-0.00034990510633490114,-0.021301285435222007,0.00010920979589063571,-0.00110069588218735,-0.00468289865210394
0.22,-2.298947614055946,-0.0003797342640522075,-0.028793978201766664,0.00013070359828443144,-0.001550044650672132,-0.006652251474210534
0.22666666666666666,-2.2805039375446845,-0.00040230540535418874,-0.03939945803528738,0.00015626896460910937,-0.002152806567745317,-0.0097553460808464
0.23333333333333334,-2.2622642497905687,-0.00038302091477851935,-0.054725272040803984,0.00018657290978151217,-0.002953610759308996,-0.014845845356547514
0.24,-2.2442784952766233,-0.00030867981061889803,-0.07719551906253637,0.0002221568967429117,-0.004001556476347904,-0.023505840106205038
0.24666666666666667,-2.22656108620054,-0.00012850739141781684,-0.11072913891192451,0.0002636945462804345,-0.005358974390440304,-0.03899510882651458
0.25333333333333335,-2.2091845838845,0.0002704906984549795,-0.16068828329030196,0.00031164954991687153,-0.007091167774318467,-0.0681763961608407
0.26,-2.192274471538402,0.0011411518678555513,-0.2302198496898475,0.00036608390283077364,-0.009254411012753911,-0.12554742339821076
0.26666666666666666,-2.176251631637525,0.0034842218478453946,-0.3036720771082125,0.00042535910170423747,-0.011826835649333862,-0.22053176167859212
0.2733333333333333,-2.16120044716688,0.007502280736554494,-0.3919715235936934,0.0004880239171202313,-0.01475840365741473,-0.3349180919711833
0.28,-2.1454042722376854,0.0077980741205279525,-0.8417827577801824,0.000564047718877244,-0.018689939219297458,-0.2768901417958577
0.2866666666666667,-2.1271650792777144,0.006373077982527052,-8.966160775111522,0.0006632024553903885,-0.024344893372150036,-0.2880963446362158
0.29333333333333333,-2.1069604713620333,0.02313860615618021,0.8691278045350082,0.0007866616565148098,-0.032204567320924596,39.08554421748061
0.3,-2.085090242119902,-0.024125311473400732,3.8068083658112504,0.0009341543430787954,-0.04287552810808647,84.39148644999804
0.30666666666666664,-2.0621817984634903,-0.07533246943259249,1.6576112907031402,0.0010973463551642109,-0.05687201672729564,129.13723858393496
0.31333333333333335,-2.042739612350789,-0.1155138517618974,1.301931905436535,0.0012316378944756327,-0.07076058872339559,174.07040327017714
0.32,-2.026106806904864,-0.12309260602844618,1.4004510014419336,0.0013334214729165907,-0.08383531377446841,204.2336150665193
0.32666666666666666,-2.0096433212537446,-0.15501112538457584,1.8264608010793482,0.0014045289176933652,-0.09744375551494153,203.21910007439942
0.3333333333333333,-1.9933490567130583,-0.17440380600965383,1.7637092020896035,0.0004601091053717971,-0.10995632190639573,204.22584474199653
0.34,-1.9772151409561178,-0.18496278630074972,1.7319037643119217,0.001237712924621586,-0.1252022076175412,192.45276138538725
0.3466666666666667,-1.9612379138057427,-0.19267287165787078,1.7916017980220384,0.0024225678579641104,-0.14515810832594883,168.31869522778945
0.35333333333333333,-1.945418760614992,-0.20222381420278138,1.7379923260271142,0.001403374179670582,-0.1672263081617483,141.72462616770193
0.36,-1.9297966150229218,-0.21496892541898818,1.685276404276475,0.0017844699894316047,-0.169112694247999,116.4492706393547
0.36666666666666664,-1.9143723009243931,-0.22883664783811652,1.5593056436968828,0.0027181010394277364,-0.13454925393598177,93.44470797317373
0.37333333333333335,-1.89911840276889,-0.24445879511082894,1.4409276284626884,0.005146678185412539,-0.011485220406502586,72.84156277281149
0.38,-1.8840259914126314,-0.2614041133464239,1.3464824982309849,0.010578283031334415,0.2865448214289815,54.80708579327552
0.38666666666666666,-1.8690891241124248,-0.2788215071060597,1.27441766032599,0.020926559346022434,0.8698627966975541,39.52622970470168
0.3933333333333333,-1.854422622801734,-0.2997611514246463,1.1636833487074745,0.04545399188382495,2.103036561457275,27.53737295111424
0.4,-1.8399200581404607,-0.3235234937574333,0.9502244501672439,0.07654383993806012,3.091580274088163,17.77111951229773
0.4066666666666667,-1.8255865876770665,-0.35082268831183017,0.5944184353125795,0.10211458711394669,3.5128490778512202,10.228303226373534
0.41333333333333333,-1.8114570700262675,-0.3831631065959651,0.023861895178056702,0.10519544256145545,2.874761384343768,5.265817056054544
0.42,-1.796976983969514,-0.30644226295298077,-0.20391781505507295,0.07112179652932274,2.137219900038937,3.105159051405715
0.4266666666666667,-1.782847949847349,-0.23168380244720715,-0.30886860662327437,0.041678485304712,1.4323565674541097,1.7480976295160686
0.43333333333333335,-1.7691376682543714,-0.17111993914593573,-0.32760294069837076,0.02104629537487233,0.8064601631374259,0.8447271739040767
0.44,-1.7560831611232515,-0.12869829422398713,-0.23553692803378184,0.01147786382528222,0.4573764703120885,0.2831657214778355
0.44666666666666666,-1.7437288515056233,-0.0846971894112088,-0.11530072242446046,0.0246918742105066,1.137969050910354,-0.022831356437611708
0.4533333333333333,-1.7317732290040306,-0.03979835399033265,0.020979034259338964,0.05085411718952601,2.403529503166785,-0.18315071662293714
0.46,-1.7199311430491975,0.002154612079134255,0.16913966447583914,0.03290277263181733,1.1935057795794506,0.02043799304319449
0.4666666666666667,-1.7080491504810396,0.04723545707715757,0.314724276385669,0.028163064536555673,0.5233432993945708,0.3233498076063952
0.47333333333333333,-1.6960924159738644,0.09817457258864225,0.45548420919736665,0.04816770943267924,0.8642983451186774,0.812285963269148
0.48,-1.684314693867236,0.16416461741358124,0.578777969899783,0.07941337243475674,1.3482716751673915,1.427158345375635
0.4866666666666667,-1.6726287724191655,0.23638831324418594,0.6923285409059029,0.11572981488451337,1.901397443540031,2.107354347289246
0.49333333333333335,-1.6614070868130049,0.3117717387380462,0.7415877889453153,0.1644348250902801,2.724185861966713,3.132054250344257
0.5,-1.6505159173256783,0.35861463763330026,0.6878227987889971,0.20752515449491432,3.714321381499671,4.467093913692347
0.5066666666666667,-1.6404109659874553,0.3375665057492835,0.38898798827768577,0.2372595121458924,5.102535302031127,6.540357034316043
0.5133333333333333,-1.6306764599794041,0.3114685626205845,0.16151914148245156,0.2643277141144625,6.58855092838378,8.683514696506165
0.52,-1.6216020183223685,0.27637279954250743,0.06121110544171568,0.2866453248975559,8.248830917715967,10.951211370153738
0.5266666666666666,-1.6129821436430853,0.22922083562162074,-0.03605576739925535,0.3024828870815898,9.831390883147405,13.100709446291354
0.5333333333333333,-1.6061460905617309,0.13475766674100542,-0.12138844162028856,0.29289130194000434,11.108960244309477,14.786370021241474
0.54,-1.5993100374803764,0.040294497860390105,-0.20672111584132175,0.2832997167984189,12.386529605471548,16.472030596191594
0.5466666666666666,-1.5922883251473907,-0.04260370260573319,-0.3162964060306215,0.25262897108110954,13.635949428984595,18.088537823252782
0.5533333333333333,-1.5849071595926465,-0.10311107083701013,-0.4728076088506228,0.1811470505134576,14.830869183634736,19.57115787003268
0.56,-1.577525994037902,-0.16361843906828705,-0.6293188116706241,0.10966512994580571,16.025788938284876,21.053777916812578
0.5666666666666667,-1.5690859741875638,-0.1618330219778666,-0.8571152424745494,-0.029678481166938345,16.832217439424614,22.203004856628983
0.5733333333333334,-1.5601691243752498,-0.1319955238977636,-1.117013287910833,-0.1995819978841093,17.46369810268914,23.20209610433206
0.58,-1.5517419971270456,-0.07015422428135712,-1.3382317923824694,-0.3575480577502421,17.309616541927724,23.964786730600853
0.5866666666666667,-1.5438145080359567,0.024338869620592007,-1.519987596986906,-0.5033349586826996,16.35406718965126,24.486290245042028
0.5933333333333334,-1.535905563761211,0.1199467880014901,-1.6975435143108737,-0.6456221940025836,15.36969033604949,24.994907209113695
0.6,-1.52867524821686,0.2563505766007588,-1.7214088196495734,-0.6598427185225179,13.330400332445844,25.03195394274638
0.6066666666666667,-1.5214449326725088,0.3927543652000297,-1.7452741249882735,-0.6740632430424525,11.291110328842162,25.069000676379066
0.6133333333333333,-1.5128162105658747,0.49268960763582725,-1.724562624338622,-0.6476610510370179,9.009861420023274,24.63229990356633
0.62,-1.5012186040712328,0.5152003726140109,-1.6092124206568583,-0.5350148781010811,6.214922118433185,23.189810389711717
0.6266666666666667,-1.488868455736459,0.5258566267620054,-1.4654693300681452,-0.41428170542870985,4.088858435179821,20.705670343294123
0.6333333333333333,-1.475994533319383,0.5290886908741207,-1.3098953394597814,-0.292648426920216,2.4353287546330558,17.544302408355104
0.64,-1.4623563077902275,0.5275128907770421,-1.1948683527089208,-0.20416998178773277,1.5223007000481894,13.742909988932787
0.6466666666666666,-1.4481884429277774,0.5242773170102666,-1.0951460822917833,-0.1383448891050722,0.9081517131366414,10.046396568112025
0.6533333333333333,-1.4335496176676836,0.5198126312317388,-1.0110892353678365,-0.09067309865936396,0.5124093334416648,6.572102542906392
0.66,-1.4184434902276382,0.5144874095129088,-0.9450746278863962,-0.05839764021709032,0.2722874095721979,3.482922347601669
0.6666666666666666,-1.4027418146242174,0.5110266818567448,-0.8963240747596735,-0.03910135756991037,0.1438410902409979,1.0140676077818607
0.6733333333333333,-1.3865836328877201,0.5074346414698891,-0.8443708235527372,-0.02588380120030764,0.061164656102333265,-0.9648217524386942
0.68,-1.3699902796142729,0.5051208867082979,-0.76676489578768,-0.019758529085205305,0.013870844913626234,-2.4705046776745565
0.6866666666666666,-1.352956860998122,0.5059523703812301,-0.6302378651865607,-0.01477624016503826,-0.02226035265993819,-3.555713621247555
0.6933333333333334,-1.3354742114203204,0.5118133675592955,-0.3372899681494336,-0.006840916426149776,-0.05137798216070267,-4.293745901491913
0.7,-1.3175012650166473,0.5261811363685113,0.2650268389736596,-0.002617166579872466,-0.04470376172671105,-4.706661534770945
0.7066666666666667,-1.2985580170536668,0.5608840746842031,0.9985395516714193,-0.0006196524240206854,-0.04981885241876332,-4.669202367740575
0.7133333333333334,-1.27652450024169,0.6086091373515953,0.5733202807088644,0.000774234165947408,-0.049669185404689425,-3.534802976077927
0.72,-1.2517204084741735,0.5500155273276106,-0.4828935708596768,0.0016181902895744203,-0.044741539805190016,-1.659310746648732
0.7266666666666667,-1.2286606930207578,0.41925534352661875,-0.688498907983488,0.0019826629582306134,-0.03781770290916062,-1.7001679774532301
0.7333333333333333,-1.2091999140864178,0.28892072929505813,-1.1024713375044315,0.002090974265438323,-0.03141515771782842,-1.3665824627772616
0.74,-1.190541233874928,0.2268747921538934,-0.4547420668637263,0.002096258429785863,-0.02552197663638775,-0.9521693837354706
0.7466666666666667,-1.1716289066591412,0.20582507600394287,0.4472511359913293,0.0020468620304591556,-0.020185055805975675,-0.5916896886607339
0.7533333333333333,-1.1517679769749989,0.1958223143567889,0.7574004856366137,0.001965534298053085,-0.015463010585077345,-0.3320181943563023
0.76,-1.1309202040411148,0.19168023915597723,0.6779175740538098,0.0018688152397591602,-0.011509702424323316,-0.187576870059543
0.7666666666666667,-1.1094226867208878,0.19022825648059738,0.5366578077655255,0.0017703735855413582,-0.008410676407608427,-0.11068924106162545
0.7733333333333333,-1.0873605400666104,0.19027871579783726,0.41278457626492904,0.0016780233945754785,-0.00608711744908962,-0.06804871529804424
0.78,-1.064775041339573,0.1911618457858125,0.31842224348094567,0.001596624567470627,-0.004442529541663213,-0.04385177412246151
0.7866666666666666,-1.0416557466447809,0.1925729486884027,0.24820146470571028,0.001527561615818689,-0.0033121471900932086,-0.029224383924079174
0.7933333333333333,-1.0180677476102173,0.19434502529382042,0.19491329253436165,0.0014698943315392336,-0.0025404840208859665,-0.019711838732655616
0.8,-0.9940223417315801,0.19624527293586913,0.15399865633853171,0.0014224858848919351,-0.0020283082295804483,-0.013315089673349937
0.8066666666666666,-0.9695426783997576,0.1982549745191826,0.1221372937385431,0.0013837927171570165,-0.0017001429825460983,-0.008888702129987684
0.8133333333333334,-0.9445048363644462,0.20040593490299147,0.09758066303178595,0.0013524838545501798,-0.0015130771573153747,-0.0058623560760558665
0.82,-0.9190247851688311,0.20262645440005775,0.07780604534078414,0.0013255339257953703,-0.0014116294080424665,-0.0036535125285278897
0.8266666666666667,-0.8931056680518016,0.20491924903117256,0.06148585058006181,0.0013006325275604245,-0.0013684912461558406,-0.0019866323786338347
0.8333333333333334,-0.8666726957513886,0.20720326056490893,0.04802509035057191,0.0012746738035753445,-0.001372849799509757,-0.0007327337735240633
0.84,-0.8397470422227656,0.20946205229460851,0.03662599231657417,0.0012448643846118906,-0.001412853843380016,0.00024871908999422084
0.8466666666666667,-0.8123562188091904,0.2117516762327297,0.02665871348583323,0.0012084433856720245,-0.001481308276577175,0.0010582338176403938
0.8533333333333334,-0.7844487803435956,0.21407910181023954,0.018003645106748574,0.001159426242819897,-0.0015839123029263462,0.0017318376515744298
0.86,-0.756046980452833,0.2163345129855968,0.010128852432245298,0.001095213129096207,-0.0017177247761837253,0.0023434237198158947
0.8666666666666667,-0.727130299831961,0.21871404790869386,0.002932292638399124,0.0010080166478817789,-0.001894296456506632,0.002929362490345051
0.8733333333333333,-0.6976909881813683,0.22104468735950097,-0.00383431804672111,0.0008918595317384196,-0.0021217805192867856,0.0035378942711206496
0.88,-0.6676857232565702,0.22345026535250484,-0.010281392154769574,0.000733797271351381,-0.0024293644718793705,0.004239570297663186
0.8866666666666667,-0.637160522804604,0.2258639900380589,-0.01652928435281992,0.0005184655911610365,-0.00284835476131975,0.005121732645419154
0.8933333333333333,-0.6060497313097113,0.2283009106076021,-0.02251984997656378,0.00015627652934620007,-0.0035216082847798077,0.006501490771325467
0.9,-0.5743947316405578,0.23082515607831156,-0.02750678885030607,-0.0008560096819688076,-0.004840169702890665,0.009424563427814888
0.9066666666666666,-0.5421212887956937,0.23333417381735397,-0.04196202586696565,0.00424458120687868,-0.00628333180418047,0.0064342405293630785
0.9133333333333333,-0.5092647616423169,0.23606974529660052,-0.050886939732955314,0.011036639708422983,-0.009898328073865557,0.0030241868750669532
0.92,-0.4757750186138275,0.23881549929375967,-0.05030529847585847,-0.0000000000000014182329017517676,-0.0000000000000010715324144969385,0.0005071872777590374
0.9266666666666666,-0.4416702182426226,0.2417890172851778,-0.05802185789093014,-0.000000000000005952838702511942,0.0000000000000013440007536804327,0.0006156857205725866
