# n,energy,berry,bcd_x,bcd_y,qmd_x,qmd_y
0.0000015,-3.249995615348166,-0.000000000000000012660290812524325,0,0,0,0
0.006688963210702341,-3.201719172894637,-0.0000026493493696941944,-0.000000000000000000004762109431533572,0.0000000000000000000014597635353872907,0.0000000000000000000004728608005698175,0.0000000000000000000006105186094781795
0.013377926421404682,-3.1540469932857746,-0.000019890437798130916,0.00000000000000000003598585602127931,-0.00000000000000000005410034869342962,-0.000000000000000000017981810753056623,-0.00000000000000000001409738793633312
0.020066889632107024,-3.1067891103120093,-0.00006676719967478186,-0.0000000000000000001351475837288209,0.00000000000000000013440732732687955,0.00000000000000000009360252188738585,-0.0000000000000000000016447819874753033
0.026755852842809364,-3.060188783752815,-0.00015969348569026235,0.0000000000000000003387583435086014,0.00000000000000000032552788365226034,0.00000000000000000009806552314125032,-0.00000000000000000014488211713852418
0.033444816053511704,-3.0139447274092253,-0.0003190275542963834,-0.0000000000000000007084163164711598,-0.0000000000000000003346976821059079,-0.00000000000000000029369769585153847,-0.00000000000000000004881208074283282
0.04013377926421405,-2.9681851913208894,-0.0005634047241004244,0.00000000000000000007667420091059618,0.00000000000000000022557847170715396,0.0000000000000000013163963297971198,0.0000000000000000000404967039674169
0.046822742474916385,-2.923093323968726,-0.0009129399338209625,0.000000000000000000961379906638916,0.0000000000000000012523311359183358,-0.00000000000000000022764362658058806,0.0000000000000000010247010240876947
0.05351170568561873,-2.8783771766361372,-0.001391363143859777,0.0000000000000000023630628059530934,0.000000000000000001847824084547129,-0.000000000000000002025992819233583,-0.0000000000000000006511693002556274
0.06020066889632107,-2.8341417221264287,-0.0020234946713528776,-0.0000000000000000001626829511154735,-0.000000000000000002469608387552404,-0.000000000000000007176291729469793,0.0000000000000000007456960058035162
0.06688963210702341,-2.790555921578669,-0.0028353534119169286,0.000000000000000006169688057883466,0.000000000000000004793397919456165,-0.000000000000000001880657600182829,0.000000000000000002628725762359792
0.07357859531772576,-2.751326432600552,-0.0037553893774845935,-0.0000000000000000015745781258361238,0.00000000000000000007804692134999407,-0.00000000000000000006753371615124728,-0.0000000000000000030772039301791104
0.0802675585284281,-2.7258834932612315,-0.004459632738754583,0.000000000000000004702008704382031,0.000000000000000012266922762393868,-0.0000000000000000029511635993994456,-0.0000000000000000008946281206424427
0.08695652173913043,-2.703242833944398,-0.005162491767777426,0.000000000000000011740811545201975,0.000000000000000023703808529943534,0.0000000000000000009471457912804662,0.000000000000000007400700457075023
0.09364548494983277,-2.680764898083431,-0.0059428918233490596,-0.000000000000000006814985876497743,-0.000000000000000015984446670141202,0.000000000000000006307667677527383,-0.0000000000000000008794154441908098
0.10033444816053512,-2.6584776770580536,-0.006804952072572888,0.00000000000000000958113544928538,-0.000000000000000010595418324362496,-0.0000000000000000006557060499399663,-0.000000000000000004141403578059258
0.10702341137123746,-2.6362000519056514,-0.007748509676863953,0.000000000000000023588006701457103,0.00000000000000001598157591713802,-0.000000000000000018603361091189402,0.000000000000000023272133886976117
0.11371237458193979,-2.6141898835332893,-0.00877908580257402,0.000000000000000052209165959183905,-0.0000000000000000252327132465829,0.00000000000000001868323272835167,0.0000000000000000031707442612729298
0.12040133779264214,-2.592206866330142,-0.009913635600197451,0.000000000000000008480287882221172,0.000000000000000000510364764836816,-0.0000000000000000237736499793755,0.0000000000000000020663079032666243
0.12709030100334448,-2.570313167689673,-0.011133887104471149,-0.00000000000000003671216169588247,0.00000000000000003992586794679066,-0.0000000000000000031798259712711197,-0.0000000000000000169044567795277
0.13377926421404682,-2.5486308378364013,-0.012471673026823277,-0.00000000000000000013345481228979699,-0.00000000000000002671044163499466,-0.0000000000000000034149814477215716,-0.000000000000000016641990878974104
0.14046822742474915,-2.5270361824391423,-0.013905271486394083,-0.00000000000000001494376373606212,-0.000000000000000022174631091079277,0.000000000000000004130871473685627,0.000000000000000009458025065513945
0.14715719063545152,-2.5056428344297377,-0.015463843809499729,-0.000000000000000009059094044602631,-0.00000000000000003674221888643602,0.000000000000000010039865333449331,0.000000000000000029759576529551774
0.15384615384615385,-2.484218884449494,-0.0171424842522087,0.00000000000000001919057214661643,0.000000000000000014765712120538022,-0.00000000000000003990063436089655,-0.000000000000000021598464685496285
0.1605351170568562,-2.462931673309643,-0.01894579185912114,0.00000000000000009476160383871901,0.000000000000000013390860111119113,-0.00000000000000002407504868671494,-0.000000000000000006717301717124116
0.16722408026755853,-2.441948179002353,-0.02088858461440109,0.000000000000000025744318692910308,0.0000000000000000598583288802278,-0.0000000000000000026735531657278055,-0.000000000000000006793218694899717
0.17391304347826086,-2.420968290817794,-0.022977297408122783,0.00000000000000002796437160069113,-0.00000000000000006659169119493456,-0.000000000000000047491119197803276,0.000000000000000004463316517738762
0.1806020066889632,-2.4000116034821475,-0.025220350934018303,-0.00000000000000005716009322210667,-0.0000000000000000250997991051345,-0.0000000000000000002327439323435544,-0.00000000000000001104645821562021
0.18729096989966554,-2.3794219918765367,-0.027599660215304196,0.00000000000000004971120791935396,-0.000000000000000006306353179728137,-0.00000000000000008258310665659763,0.000000000000000020476186365191788
0.1939799331103679,-2.3587717482652515,-0.03015928223500787,0.00000000000000010777352919256802,-0.00000000000000002001741544291289,-0.00000000000000002132901349613021,0.000000000000000024316548292525653
0.20066889632107024,-2.338303927451959,-0.03290224672256433,0.00000000000000006039226890796999,0.000000000000000028531845250783275,0.00000000000000004906154949997383,-0.00000000000000003129946841596365
0.20735785953177258,-2.317963317801625,-0.035822858071252274,0.000000000000000090226950701501,0.00000000000000016111930646790354,-0.00000000000000012903326759246165,0.00000000000000003484352889257334
0.2140468227424749,-2.2977632310082723,-0.03895072288267529,0.00000000000000007916532038047478,0.00000000000000036774321499824897,0.00000000000000015731309073329278,0.000000000000000009084862394951668
0.22073578595317725,-2.2775294279236307,-0.042308445992183155,-0.00000000000000012329977433266659,-0.000000000000000018309971741955207,0.00000000000000011522700524243229,0.000000000000000042672943800163245
0.22742474916387959,-2.257560284729016,-0.045859400939224276,-0.0000000000000001774573627274712,0.000000000000000027023368734278646,-0.0000000000000000390193445288201,0.0000000000000000020056787361316674
0.23411371237458195,-2.2377027523611672,-0.04967389096855305,0.00000000000000003317263186077378,0.00000000000000013577007092866071,0.00000000000000007678088230399476,-0.0000000000000000031294357027599433
0.2408026755852843,-2.2180012569769882,-0.05374314404254091,-0.00000000000000003371573840417468,0.0000000000000005070261521125238,0.00000000000000004214130894410961,-0.00000000000000006427172604060396
0.24749163879598662,-2.198414943626381,-0.05805291212931269,0.0000000000000002898588702519054,-0.00000000000000005666794404729088,-0.0000000000000000364210541473566,-0.000000000000000022002500298797812
0.25418060200668896,-2.1789440837633762,-0.06263703365185398,0.0000000000000002961427699495414,-0.0000000000000004729733931580807,-0.000000000000000001783428568321032,-0.000000000000000024600508116141976
0.2608695652173913,-2.159584369804926,-0.06752037193860129,0.0000000000000002063384061338189,-0.00000000000000017075599894202577,-0.000000000000000024617447690899246,-0.00000000000000003410388723317516
0.26755852842809363,-2.1403492554565364,-0.07271565173522276,0.00000000000000004783730323921271,0.000000000000000013695600223612838,-0.00000000000000015018856615743402,-0.000000000000000009079395609298327
0.27424749163879597,-2.121210058079168,-0.07824430707939566,-0.00000000000000013313092049014279,-0.0000000000000003421997865325945,-0.00000000000000020354352912147332,-0.000000000000000023953824939674082
0.2809364548494983,-2.1021447771904542,-0.08413667177290583,0.000000000000000011980997821110163,-0.0000000000000004933496371487301,-0.0000000000000001373669102464882,-0.000000000000000019500149700325208
0.28762541806020064,-2.083283258867866,-0.09039593596792496,0.0007363195616008223,-0.00000000000000007120843561532791,-0.0000000000000001583687392826584,-0.0003637565671593266
0.29431438127090304,-2.1137275872399774,-0.047869606944137444,0.15555720431070516,-0.26901350308548255,1.828169586910525,-1.079092839270688
0.3010033444816054,-2.091903138783141,-0.0571736518922318,0.17444498610447376,-0.30172383431991556,1.9291942498877548,-1.1401984672182308
0.3076923076923077,-2.0742162124297954,-0.05388042215257661,0.15903743709840581,-0.27501713087169594,2.2546509070915306,-1.3316780283218228
0.31438127090301005,-2.0544231349101034,-0.050089545400059096,0.13402047787879748,-0.2316549245940721,2.8942416746704738,-1.7078154341866103
0.3210702341137124,-2.0323823681229545,-0.050712321943720835,0.11677406049229229,-0.20171301865569544,3.6768871141651163,-2.175530945506079
0.3277591973244147,-2.00812169307074,-0.06456385385473465,0.12652648869561167,-0.21825793135239274,4.624217945372765,-2.7767161202895845
0.33444816053511706,-1.982790645694969,-0.12483343546290218,0.2957943900504316,-0.5504465835281335,6.217078717074013,-3.6875116731715254
0.3411371237458194,-1.9589524033811136,-0.6783071208524932,5.886037294889345,-12.262217393956746,7.093057772955243,-5.878201183569819
0.34782608695652173,-1.9358361453710704,-0.4463285760982799,1.5612908220623076,-3.3109171267495263,9.024426580784008,-5.38093534255184
0.35451505016722407,-1.9133290290896885,-0.005846562323513077,-0.6767189921350198,1.3459022453265788,3.9007775995382454,-1.8518720514063816
0.3612040133779264,-1.8899255922797098,0.08024744352479891,-0.13702787899826963,0.27841889575242,0.9059092838688689,-0.19984080383613034
0.36789297658862874,-1.8686918546532856,0.10186609359354072,-0.07031105183276094,0.12815712149930525,-0.33418808881041606,0.23846397221513527
0.3745819397993311,-1.8470995093684526,0.11556175219608868,-0.048067539431672135,0.0841628814855955,-1.1008102715538566,0.6322716492488781
0.38127090301003347,-1.8265545568811923,0.12590703888207147,-0.042328567575036065,0.07268047594836455,-1.5849018756448725,0.8870978554568054
0.3879598662207358,-1.8074493895720307,0.1335701463325905,-0.04481911293059095,0.07709975012809211,-1.7871344102981155,1.0079154328234745
0.39464882943143814,-1.788893317205714,0.13846065229682195,-0.0506883964126395,0.08728558080231899,-1.8103261913354678,1.0201217949136407
0.4013377926421405,-1.7714045309220259,0.14128732538104247,-0.0579999597364121,0.10009196995289275,-1.7993156434533455,1.0130715333212121
0.4080267558528428,-1.754012597363646,0.14467942233268052,-0.07147062297437434,0.11587491158094283,-1.7612451709798824,1.0351916670406154
0.41471571906354515,-1.73673057162691,0.14871895129255613,-0.08365029691692967,0.1372243033436144,-1.7201871510604716,1.0252096890820224
0.4214046822742475,-1.719607904665036,0.15332898464808545,-0.09549843104655642,0.1613171579954202,-1.659118734634741,0.9835624368593777
0.4280936454849498,-1.7026922804485478,0.15846357160395172,-0.10819226645369737,0.1848739384491097,-1.5540821718645623,0.9180752298567634
0.43478260869565216,-1.686025068895052,0.16414975648464306,-0.11983730789726209,0.20621991617341995,-1.3882973280204205,0.8183795535163612
0.4414715719063545,-1.669725246660701,0.1706038579924062,-0.12813195023455892,0.22163364455210915,-1.1056977807872572,0.6545697773314527
0.44816053511705684,-1.6542236806943478,0.1782894827839931,-0.1304450691993366,0.2269065167009933,-0.7170098444542417,0.43564399523941405
0.45484949832775917,-1.6386136169774466,0.18774753270940803,-0.1315546757574618,0.23117082962450083,-0.4717538409709343,0.3123192723635441
0.46153846153846156,-1.622729273989015,0.1997187643928216,-0.12879128469436704,0.23234151098042413,-0.4103373909363906,0.3267527844048105
0.4682274247491639,-1.6067133523690265,0.2150497577540554,-0.11475268322284618,0.22197711069561463,-0.46081969231765846,0.46879275757702016
0.47491638795986624,-1.5921878039423254,0.24106374503761402,-0.058635463470227134,0.16657960264907004,-0.7299164675878889,0.7552142103243793
0.4816053511705686,-1.5777767944531642,0.2774587981736779,0.10858204238283933,-0.10490765003494207,-1.135013530156535,0.8881308623004088
0.4882943143812709,-1.5634970727945843,0.34215108923729287,0.6650772214231955,-1.073525405583109,-2.022810361585793,1.1894184992419317
0.49498327759197325,-1.5494949621127259,0.4989666697761044,2.5779942444494686,-4.420519625906039,-4.60268695236196,2.6676201020380557
0.5016722408026756,-1.5356160144585915,1.949684664441698,-32.19366829175482,55.28892102698929,-15.10432262677357,9.044765818492264
0.5083612040133779,-1.5216547451621383,2.77075790609879,-53.22826776691976,91.42765498354144,-21.472342213298877,12.928539043039702
0.5150501672240803,-1.507380566998271,0.8958031261572672,-8.16922497381686,14.064032977215135,-10.633635513022353,6.3295793692109985
0.5217391304347826,-1.4933463480133036,0.5476955601455477,-1.5706023037543335,2.729791275820946,-8.328468479855328,5.076934765746166
0.5284280936454849,-1.50552777389037,-1.0124345745713517,0.00407722803191682,0.0000000000000008477532063330629,-0.00000000000000019592573024720003,-0.0008745255746397927
0.5351170568561873,-1.4933859007329462,-1.085525384741018,0.004051803940973588,0.0000000000000032993771472580955,-0.00000000000000032297037446402155,-0.0008532771028012519
0.5418060200668896,-1.4819923279934168,-1.1703953926649608,0.004013379725922826,0.0000000000000016215981202465483,-0.0000000000000004461285694148113,-0.0008320156187741158
0.5484949832775919,-1.4707622569593635,-1.2576468390592097,0.003973162875172057,-0.00000000000000018080107379235054,-0.0000000000000005017436056745092,-0.0008108343453454653
0.5551839464882943,-1.4609701800383792,-1.3651616462875704,0.003920892786966789,-0.00000000000000032374635629793676,0.00000000000000027300403044692783,-0.0007906528132351883
0.5618729096989966,-1.451178103117395,-1.4726764535159313,0.003868622698761521,-0.000000000000000466691638803523,0.0000000000000010477516665683647,-0.0007704712811249111
0.568561872909699,-1.442043819867236,-1.5964745609698703,0.0037988593879334787,-0.00000000000000010515441282350691,0.0000000000000007040412083865233,-0.0007494685115886734
0.5752508361204013,-1.4329724127119585,-1.7218291296294592,0.0037274239638362006,0.00000000000000030460445388714677,0.0000000000000002534214253250751,-0.0007283872429658607
0.5819397993311036,-1.4227338235957305,-1.8412450065745918,0.0036245169117368114,0.0000000000000004888610880472227,0.00000000000000022910626880837657,-0.0007022201051822691
0.5886287625418061,-1.411645719582562,-1.9563385008505656,0.0034987037338462027,0.0000000000000005089894952005049,0.0000000000000005150701801669423,-0.0006723512981127203
0.5953177257525084,-1.399983957307722,-2.0717455104832814,0.0033294692004766186,0.0000000000000007283633159416761,0.0000000000000008658762172682264,-0.0006369490733597412
0.6020066889632107,-1.3880387136751147,-2.1873074481715116,0.0031387773890903226,0.0000000000000010461970807760224,0.0000000000000012487249095079435,-0.0005988124318593751
0.6086956521739131,-1.3754847252179263,-2.3055811534442694,0.0028670821546932417,0.0000000000000002772251601182728,0.00000000000000012262124177517526,-0.0005509691514087984
0.6153846153846154,-1.3627428054817832,-2.425262747914855,0.0025588113690545927,-0.00000000000000015808489063017735,-0.0000000000000006940374841530964,-0.0004988585219321782
0.6220735785953178,-1.3495820575486734,-2.5488378698080645,0.0021537061029998188,0.0000000000000010364942960334037,0.00000000000000020575516983920105,-0.0004355545914612595
0.6287625418060201,-1.3361776909108711,-2.6760618160043452,0.001646115828548647,0.00000000000000041208501541857203,-0.00000000000000012152434318077223,-0.00036067681874932245
0.6354515050167224,-1.3225992359411642,-2.805986872714313,0.0010615315218687384,-0.0000000000000012450611688936002,-0.0000000000000011195372260242934,-0.00027711634317977864
0.6421404682274248,-1.3086572386475837,-2.943159282902781,0.0002516966579855371,-0.0000000000000004779698246891876,0.000000000000000016886834211038655,-0.0001683562486636647
0.6488294314381271,-1.2940472555737474,-3.0595650982310105,-0.000440610710613891,-0.0000000000000007941845712230994,0.00000000000000043805618865976773,-0.00009797865752690783
0.6555183946488294,-1.2785838343750224,-3.145641138609758,-0.0009505273425582705,-0.0000000000000016008885135925725,0.000000000000000237833882996724,-0.00006578033578729873
0.6622073578595318,-1.2614765312998044,-3.1568689147238285,-0.0009696946815151527,0.0000000000000005128329201019721,0.0000000000000001056523786236442,-0.00006014984997198819
0.6688963210702341,-1.244321642254814,-3.1651543239708024,-0.0009893596423292527,0.0000000000000005090476123693807,0.0000000000000012981108856935741,-0.000054377101100380425
0.6755852842809364,-1.2271343961024266,-3.170908215455492,-0.0010095191672108007,-0.00000000000000025895449920352676,-0.000000000000000020983969444807064,-0.00004848609390308052
0.6822742474916388,-1.2099499355291317,-3.1738127623957926,-0.0010300492184005783,-0.0000000000000012196405332494703,-0.000000000000001500551279115452,-0.00004248163748205841
0.6889632107023411,-1.1927985844875346,-3.173714999927294,-0.001050880774966257,-0.0000000000000019960253468940115,-0.0000000000000014464762419060992,-0.00003637038355690438
0.6956521739130435,-1.1756943805614242,-3.170692120523924,-0.001072132610146132,-0.000000000000002414865505621625,-0.0000000000000013244021157608437,-0.000030155382476506435
0.7023411371237458,-1.1586229711361005,-3.1636335458311198,-0.0010937626605393262,-0.0000000000000017631117185940774,-0.00000000000000026720606418937637,-0.000023798324544706635
0.7090301003344481,-1.141652488054638,-3.152807330206303,-0.0011157060317046727,-0.00000000000000043572371243493754,-0.00000000000000007422771692857613,-0.000017358349151365435
0.7157190635451505,-1.1247997526450584,-3.13809533769983,-0.0011378816606847952,0.00000000000000004175898795119984,-0.0000000000000003289377902298286,-0.000010842350244158968
0.7224080267558528,-1.1080826409625122,-3.1193940883893867,-0.0011602476703895873,-0.0000000000000005324402190352573,-0.0000000000000004089793765630009,-0.000004258971025638066
0.7290969899665551,-1.0915417850283622,-3.0961811144711087,-0.0011828352921839599,-0.000000000000000490893869676057,0.0000000000000006032311462296258,0.0000023835591256642002
0.7357859531772575,-1.0753022493693107,-3.066017456524711,-0.0012054678165610087,0.0000000000000005793582186304463,0.000000000000000031306777469182654,0.000009056103214986562
0.7424749163879598,-1.0592915569205286,-3.030618110230623,-0.0012281682495101545,-0.00000000000000019179960733510278,0.0000000000000008148395753259371,0.000015747377144694086
0.7491638795986622,-1.04353304728249,-2.9895398346545448,-0.0012508751528490462,-0.0000000000000011241833740460304,0.000000000000001638221645844167,0.000022441010120002097
0.7558528428093646,-1.0802790683334489,0.044850070735268005,-0.004738437649333854,0.017556714017040502,0.020751404632416915,0.01401953851192628
