# n,energy,berry,bcd_x,bcd_y,qmd_x,qmd_y
0.00000016666666666666665,-3.2511807563501596,-0.000000026561852394900742,0,0,0,0
0.006688963210702341,-3.2036293044347435,-0.0010891415099723652,-0.0000000000000000004652370393612274,0.000000000000000003340096264148437,-0.0000000000000000016234209654984275,0.0000000000000000011509869241393138
0.013377926421404682,-3.1567914933631256,-0.0022038425460792943,0.0000000000000000064871741948658884,-0.00000000000000000437389386272454,0.0000000000000000006429090914861323,-0.000000000000000002778489700690011
0.020066889632107024,-3.110703011954312,-0.0033169319280444607,0.000000000000000003887018078279877,-0.000000000000000005990598006927308,0.000000000000000008579651516298309,-0.0000000000000000029722855337671785
0.026755852842809364,-3.0653292396670473,-0.004401249776305696,0.0000000000000000032710697445649918,-0.00000000000000000351752403186983,0.000000000000000005541663674019839,-0.0000000000000000006375485651943068
0.033444816053511704,-3.0207443543419337,-0.005430461415628703,0.0000000000000000055949179806425134,0.0000000000000000053298378846214735,0.000000000000000017162583497745266,0.0000000000000000043198013111306116
0.04013377926421405,-2.9768036063171754,-0.006380090751747024,0.0000000000000000010252751771331593,-0.000000000000000006638804285590999,0.0000000000000000058523373848804575,0.0000000000000000048044864565724435
0.046822742474916385,-2.9336093073010665,-0.007227236264974092,0.0000000000000000031472946891225166,-0.000000000000000000253497904534391,0.000000000000000014048414753931798,-0.000000000000000003148686387164486
0.05351170568561873,-2.8911643044945476,-0.007953924460651721,0.00002915479030322227,0.00000846255990354111,0.00012170682024208136,-0.0000721297714882413
0.06020066889632107,-2.8494112384609345,-0.008544626246238819,0.00007351365848186193,0.000010829959371766392,0.00014601874595283255,-0.000055609727444193596
0.06688963210702341,-2.8084199059870683,-0.009006926729291207,0.00012832183638117542,0.000016398798895979557,0.00017347841705543331,-0.00004714986329681208
0.07357859531772576,-2.7782222211020033,-0.00894931640112575,0.00018045448564342394,0.00002241629154394134,0.000182730757270806,-0.00004058458590124471
0.0802675585284281,-2.756607241066639,-0.008509230316625219,0.0002250114260818069,0.00002779898782696343,0.00017645136174974612,-0.00003540452349810082
0.08695652173913043,-2.735190324085376,-0.008038361722785822,0.00027629040788897146,0.00003418881505652128,0.00015130196697286282,-0.000030260008834990497
0.09364548494983277,-2.7139566763213185,-0.0075671406977715315,0.0003349544315285737,0.00004172430328094996,0.00009734110314919497,-0.000026163862670077097
0.10033444816053512,-2.692915084037805,-0.007111015484911183,0.00040149680573371927,0.00005056983607256718,0.0000009115674570712667,-0.000025016801742347695
0.10702341137123746,-2.6720806633932743,-0.006703069972933649,0.00047619673772047365,0.000060907795523769504,-0.00015640971707329412,-0.000029988676628769264
0.11371237458193979,-2.651458793626535,-0.006407689118425225,0.0005590295929901017,0.00007294659638403245,-0.000399111667159982,-0.00004602412183001159
0.12040133779264214,-2.631067728501257,-0.00629172652489858,0.0006494542870768814,0.00008691343064944135,-0.0007587175418705535,-0.00008044529230715375
0.12709030100334448,-2.6108566258990167,-0.006445610743096689,0.0007467134859170291,0.00010310019371016728,-0.0012771159062163234,-0.00014396130749454953
0.13377926421404682,-2.590898621811998,-0.007001910975174061,0.0008487040927140032,0.0001217238700395085,-0.0020025410433109022,-0.00025085758326247716
0.14046822742474915,-2.5711944725878277,-0.008219471313766562,0.0009527778369886727,0.00014300859576622368,-0.002993629583886397,-0.00042007108498173454
0.14715719063545152,-2.5517467284707296,-0.010333891057427082,0.001055501911179622,0.00016714888237535713,-0.004317525660425254,-0.0006755151178147902
0.15384615384615385,-2.532646701160045,-0.01394173155475961,0.0011509187046842464,0.00019442889592273267,-0.006086780119124248,-0.0010592034644332825
0.1605351170568562,-2.5139275467288282,-0.020073986388075095,0.0012327488646325527,0.00022451350388126784,-0.008367298690442476,-0.0016062148516651988
0.16722408026755853,-2.495671921328366,-0.030055030392582387,0.0012948735438812577,0.00025675043823513176,-0.01119356327151396,-0.002345962267739798
0.17391304347826086,-2.478116566322407,-0.047025337821168245,0.001332060474083233,0.00028991475900977425,-0.014542939772637658,-0.0032927523481913693
0.1806020066889632,-2.461743612913922,-0.07720402911030312,0.0013312031247512408,0.0003331465168188561,-0.018248627553449012,-0.0044675416572150725
0.18729096989966554,-2.4466894791792497,-0.12262780733889665,0.0012890325167802426,0.00039219560610276153,-0.022140430293253292,-0.005850623675912917
0.1939799331103679,-2.428877017918766,-0.15190461554973472,0.0012281523814540937,0.0004374531874611751,-0.02763999164781898,-0.007716273024352658
0.20066889632107024,-2.4094218473374864,-0.17151193571187406,0.0011141484350167422,0.00048465702604567976,-0.03438352304315099,-0.010183703417370665
0.20735785953177258,-2.3884750030679265,-0.18318812595606918,0.0009379156558176443,0.000529044242546307,-0.04236791412435463,-0.013337188187003225
0.2140468227424749,-2.3662509303521815,-0.18841565880167832,0.0007009973332723799,0.0005635569791194924,-0.051357433414994345,-0.017178729585847145
0.22073578595317725,-2.342876670874743,-0.18794611661923746,0.00041671229108678447,0.0005808738582559322,-0.06094931541478052,-0.02163232943380969
0.22742474916387959,-2.3183874713185393,-0.1820864159083314,0.00010900026796546952,0.0005744637730303134,-0.07066403343977584,-0.026565580755902363
0.23411371237458195,-2.294035666338434,-0.16085196768315746,-0.00017493521003792797,0.0005424881621679422,-0.07964853325081442,-0.03157352915205588
0.2408026755852843,-2.2743788172569155,-0.09563041847522957,-0.0003765992230766631,0.0005034420453154294,-0.08650307483480382,-0.03563987651505818
0.24749163879598662,-2.2568795024623256,-0.022247561618554915,-0.0005287309944922852,0.00046081380896859813,-0.09242936893144127,-0.03930322571084613
0.25418060200668896,-2.239661585328129,0.04235411158655139,-0.0006474970119992676,0.0004146322985317252,-0.09840458717309758,-0.04305176202842942
0.2608695652173913,-2.2226363638734914,0.10212090427493317,0.000805637295081727,-0.0007164479008171664,-0.12204241280021257,-0.05054993076173593
0.26755852842809363,-2.20582671575683,0.15817144646155373,0.0015416653913819102,-0.0013847400938026128,-0.14610730201482222,-0.05922977261306865
0.27424749163879597,-2.1892419763074185,0.21141623262447046,0.0006936613152390088,-0.0009619234472939275,-0.16196539884637634,-0.06756908606902061
0.2809364548494983,-2.172898381385921,0.26250557340019204,0.00028971977975859306,-0.0006797537886878122,-0.1796527714030213,-0.07664347116890569
0.28762541806020064,-2.1568546967206315,0.3121716398469673,0.00007374073318449492,-0.0004152276367554828,-0.20035200533774,-0.08677878494372507
0.29431438127090304,-2.1410272724856134,0.3611025772422837,-0.00002979836180430808,-0.00015930663926561376,-0.2268456329597287,-0.09805703479384766
0.3010033444816054,-2.125430576979687,0.4095536687011894,-0.00001988862561850055,0.00007789213141706178,-0.26598343351266296,-0.1089623135952589
0.3076923076923077,-2.1101803667991703,0.4578174573534472,0.0001582102619460061,0.0002630160898654163,-0.33682733072065446,-0.11547808620727074
0.31438127090301005,-2.095293716699497,0.5062145659752855,0.0053137184103793965,-0.002318872274952516,-3.28800672555343,4.042972048227773
0.3210702341137124,-2.0807899401002894,0.5478915988725476,0.006856017206892986,-0.0029300786037753587,-4.05036257544645,5.269809651501539
0.3277591973244147,-2.066760451480682,0.579015695304401,0.001046177572048529,0.0004865318796097159,-0.4050569370598369,0.48814765727989684
0.33444816053511706,-2.0544272498543297,0.6131811033348784,0.00020670323637039743,0.0007197272498025305,-0.047293453946801824,-0.07915937190360366
0.3411371237458194,-2.0423986881996856,0.6510855070770366,0.000031674655551581,0.0004743750402402632,-0.1201591163297155,-0.07166102806890562
0.34782608695652173,-2.030864967958956,0.711181633706359,-0.0002160563809150439,-0.00007795741939894572,-0.08585521896330796,-0.0495769244845474
0.35451505016722407,-2.0196716587835675,0.7766986153355322,-0.00042688824227079744,-0.0005648690413205626,-0.059574401936209054,-0.03268410514564735
0.3612040133779264,-2.0092959985560235,0.8552361971693668,-0.0005490902828669722,-0.0008946433531687256,-0.05256458948512089,-0.028260469489160486
0.36789297658862874,-1.9985520055934345,0.9363139372679405,-0.0006669730185895922,-0.0012195555355054592,-0.04672283018955057,-0.024608799750020952
0.3745819397993311,-1.986718188973237,1.024907502889448,-0.0007720757861265179,-0.0015300816389962097,-0.044337108984302265,-0.023241224362392284
0.38127090301003347,-1.9746299443701083,1.1196178471958143,-0.0008770051409207745,-0.001832175700238466,-0.04262950612356098,-0.022367853509635664
0.3879598662207358,-1.9622463551408789,1.2214286593548431,-0.0009817331950520494,-0.002124481693609968,-0.0417090753600207,-0.02206816426173857
0.39464882943143814,-1.9499861301858386,1.3378512541390601,-0.0010947789913532508,-0.002395745196362823,-0.04114703442142807,-0.022102880709508596
0.4013377926421405,-1.9377954631763996,1.45970758928132,-0.0012107205660786128,-0.0026590013556773407,-0.04070688704259104,-0.022251780646700494
0.4080267558528428,-1.927090124459685,1.613668740378926,-0.0013348176599648814,-0.0028666815591883296,-0.04047057361181202,-0.022613807408675083
0.41471571906354515,-1.9164899362333807,1.769482512939936,-0.0014586996969696338,-0.003071343623280187,-0.04023987712722533,-0.02297858585674297
0.4214046822742475,-1.908371521668198,1.9690220649430037,-0.0015775059373508299,-0.0032047712224944624,-0.04014175243628093,-0.023408309908425056
0.4280936454849498,-1.9002531071030155,2.1685616169460715,-0.001696312177732026,-0.0033381988217087385,-0.040043627745336534,-0.02383803396010714
0.43478260869565216,-1.889646645137265,2.3514925461986436,-0.001874310402195726,-0.0034888911688181674,-0.03998264303317748,-0.02451096842177675
0.4414715719063545,-1.875765158504206,2.5125614927633126,-0.0021302232226325167,-0.003662309158219856,-0.039970545792630714,-0.025504041515802642
0.44816053511705684,-1.8594444661142675,2.6736541381618433,-0.002499694241291145,-0.003792467790601146,-0.04017348429064429,-0.026948775263677595
0.45484949832775917,-1.8414358081705728,2.839847309607577,-0.0029777922583828715,-0.0038597274091344423,-0.04063632392840941,-0.028790946362471752
0.46153846153846156,-1.8214978326325697,3.0156741067946458,-0.0036144013114279006,-0.003825182885704291,-0.04154549995295476,-0.031192837242146058
0.4682274247491639,-1.7993945623756256,3.2069463915214396,-0.004493070407134507,-0.0036450219305675,-0.043252282631074154,-0.034456096859091526
0.47491638795986624,-1.7748021975174173,3.4213775951978316,-0.0057879612120011956,-0.0033080999433205867,-0.04646696346948624,-0.03931418325475695
0.4816053511705686,-1.751466094787915,3.60629284722102,-0.007218679510139942,-0.002833807742241073,-0.0567571412129963,-0.04766607262320498
0.4882943143812709,-1.732206931063367,3.7452849553280534,-0.008446325894835205,-0.0017504690274104651,-0.06398575892930825,-0.053195601128706374
0.49498327759197325,-1.713751236318445,3.890512690328695,-0.009811064418682142,-0.00011400371254069409,-0.0675908021969446,-0.05663019227791498
0.5016722408026756,-1.6953838893697304,4.0548026017995324,-0.013745546514432883,0.0033665855278277074,-0.06061624717937845,-0.047867791375563754
0.5083612040133779,-1.677121564781393,4.240792973275512,-0.018316807292005192,0.007669851466707401,-0.050383748727940485,-0.03795741306681112
0.5150501672240803,-1.6589799745115181,4.4514808263500125,-0.016438119597866792,0.009240213277353783,-0.04613863164195303,-0.037965961077753664
0.5217391304347826,-1.6409652409310644,4.69067172720622,-0.0005214811404793448,0.004671740474429023,-0.03110894449865609,-0.01551969114735231
0.5284280936454849,-1.623134462178689,4.973968833396853,-0.0002557575512545957,0.005542255508632142,-0.03168998697839229,-0.017285185512223588
0.5351170568561873,-1.6055028889516725,5.305715978982358,-0.00017147950823498723,0.006544212217502454,-0.03188320495258779,-0.018821313461518583
0.5418060200668896,-1.5857862065415858,5.446576005354464,-0.0002579661225857329,0.007810986537350187,-0.03168379608048215,-0.020312942711511926
0.5484949832775919,-1.5646842326097707,5.384447812136501,-0.0005631108155244895,0.009331718625821054,-0.030879046090730868,-0.021543714426497447
0.5551839464882943,-1.5441110761962602,5.265465566467653,-0.001072373456922326,0.010955793992395211,-0.029317717676189826,-0.022190871528017103
0.5618729096989966,-1.5245543132065842,5.139927163272721,-0.001739567539252928,0.012584318097683938,-0.026888612506630185,-0.022073434414625573
0.568561872909699,-1.5059557441038804,5.006038422494534,-0.0025146283736342764,0.014147969215570686,-0.023428607520177863,-0.021049899783313696
0.5752508361204013,-1.4882149025008795,4.86162559269618,-0.0033482658073769734,0.015584666453821307,-0.01862563792497534,-0.018924877259181995
0.5819397993311036,-1.4712529363774147,4.7046241267937035,-0.004198817158400557,0.01684596055412824,-0.01203436770305515,-0.015447628704382025
0.5886287625418061,-1.4554481112349558,4.526204245331073,-0.005006262206990318,0.017779155026321727,-0.000790404541843065,-0.008854321554278299
0.5953177257525084,-1.44070871603884,4.318382838541977,-0.005754733000970374,0.018367984291960675,0.021839003459144312,0.004868331856647607
0.6020066889632107,-1.4267589087318449,4.079888295535574,-0.006647193409592875,0.018768811066095438,0.03876273366943611,0.01816045419897605
0.6086956521739131,-1.4140011912553025,3.778479145569651,-0.008107884076629865,0.019011420010962003,0.020635382094837618,0.020121824992173763
0.6153846153846154,-1.401156946033011,3.4084483734962294,-0.010573891473003028,0.019839600820753405,-0.8113727734693886,1.0296207644305426
0.6220735785953178,-1.3882469357744909,2.9862620364660577,-0.013803985470198045,0.021112842975642268,-2.261967488719365,2.804894243933262
0.6287625418060201,-1.3739621111203246,2.705536595535314,-0.011814703659331845,0.0194370340616349,-0.6388606571036262,1.1041155842285229
0.6354515050167224,-1.359471240496309,2.4664409349343597,-0.010346577560650378,0.01801205677135085,0.3200563647561654,0.052385452723936465
0.6421404682274248,-1.3448635569431302,2.2639828740100643,-0.009987386232605446,0.0171612493025787,0.2003672537113009,0.09896478023022127
0.6488294314381271,-1.3304106671112506,2.0845813421005093,-0.00969999827168727,0.016297171327805726,0.1775377888703109,0.09288373463198184
0.6555183946488294,-1.3161505633565584,1.9073624774126636,-0.009332163151100924,0.015389557139386348,0.16148020396329463,0.08740468388623708
0.6622073578595318,-1.3020766399139883,1.7316981435093686,-0.008891063786296605,0.014444112560671957,0.15132471722024776,0.08248050569693988
0.6688963210702341,-1.2885677528983028,1.5484326943929554,-0.008326158958217755,0.013477672890407215,0.14488359934664438,0.07865045489250348
0.6755852842809364,-1.2754982652701894,1.355773982068397,-0.007720078950795214,0.012534542717908203,0.13921231791768798,0.0751294093078871
0.6822742474916388,-1.2629239817362408,1.1525290410648585,-0.0070675944240090145,0.011617682401610622,0.13440864388648646,0.07195661329826149
0.6889632107023411,-1.2516070801314025,0.920411008219974,-0.0063956633525490995,0.010804907178975861,0.13035700926038274,0.06918634118240533
0.6956521739130435,-1.240633071411263,0.680419172258925,-0.005718429133615686,0.010020516361424278,0.12651045867044233,0.06652583887944308
0.7023411371237458,-1.23201691465177,0.3849524596547864,-0.005113638927746243,0.009432926132767295,0.12350516518821184,0.06443854585811097
0.7090301003344481,-1.223798423914351,0.08012957291932488,-0.00452106684370083,0.00887852751606632,0.12064175481533165,0.06244792805585373
0.7157190635451505,-1.2143328267541496,-0.21382425607630856,-0.00379662901909114,0.008261880303670885,0.11729181967727867,0.060141232178794315
0.7224080267558528,-1.2016368457005604,-0.47962392884467187,-0.0027306189303773426,0.0074839903478784746,0.11268163783017404,0.05701579821872825
0.7290969899665551,-1.1864624244251312,-0.7192879754100988,-0.001307779248081236,0.0066373080644502565,0.10691050148162597,0.053227339580716924
0.7357859531772575,-1.1693287125925238,-0.9502965653547306,0.0005039718020389689,0.005784805101286065,0.10008242617990142,0.04890391138023181
0.7424749163879598,-1.1513511668765082,-1.201780266948251,0.0027535681410480665,0.005013736337493501,0.09254669325525812,0.04432761266626343
0.7491638795986622,-1.1326501939112472,-1.4824712800965436,0.006141895382693233,0.004081534432334783,0.08471006453618447,0.039407993463227146
0.7558528428093646,-1.1131760423542705,-1.8095215452213147,0.026021824316097463,-0.004906828914490117,0.08796071566139846,0.029915088466773924
0.7625418060200669,-1.0900384689186187,-2.037312977513146,0.004729923027405238,0.008223517420656096,0.062161821967019804,0.03312692437401561
0.7692307692307693,-1.0597984733070918,-1.9011814637591953,0.006499320989971709,0.007525995188561112,0.060016745578000276,0.030724798578067057
0.7759197324414716,-1.0305238667001104,-1.7560354406688419,0.008482737047394818,0.006909232209284279,0.0578475612221087,0.02838174882696015
0.782608695652174,-1.002459189979644,-1.59905030572356,0.010777220580981711,0.006316276967570025,0.05530097980764655,0.02600877494323665
0.7892976588628763,-0.9757046624467006,-1.4279817925460743,0.013386898766754123,0.0056742790600458875,0.05191160354932452,0.023507986794700654
0.7959866220735786,-0.9503186681928918,-1.2397002397583174,0.016186330055947197,0.004933558018981458,0.04739033070788211,0.020877197375031305
0.802675585284281,-0.9266235662821168,-1.0257386031944074,0.018942435410531276,0.004084516180304437,0.04171438714779197,0.018241879796621573
0.8093645484949833,-0.9055206247023616,-0.7598827183973818,0.021294712419660345,0.003191438243871136,0.03548071342004659,0.01589814824650778
0.8160535117056856,-0.8864796322669802,-0.46244907159910154,0.023116678425561914,0.0022970456280204704,0.02920326972901044,0.013968809690930818
0.822742474916388,-0.8660845288625357,-0.23498589658690514,0.0245861574545737,0.0012862552373351806,0.022285919314815553,0.0122653931933883
0.8294314381270903,-0.843650272018834,-0.09178559031397422,0.02550593477579725,0.0001471034336415003,0.015050889886228035,0.010986658936505071
0.8361204013377926,-0.8201290738865834,0.00975040960445498,0.025728970071499782,-0.0010604605574801916,0.008494359802410369,0.010418549555086653
0.842809364548495,-0.7957904109808037,0.0859448708513938,0.025473724445958475,-0.0023928916157596354,0.003155139413562296,0.010704898403964899
0.8494983277591973,-0.7707159856351053,0.14459616401022346,0.0255834999335224,-0.004202124546242458,-0.0007947688509675386,0.01228742887297601
0.8561872909698997,-0.7450249872204088,0.19277609063261045,0.03107404981316902,-0.009180271424104037,-0.004458940628671653,0.018835817971838687
0.862876254180602,-0.7187750595831492,0.23437907443578535,0.022108202332718617,-0.0056759576828554915,-0.004108554329905282,0.013765034961858135
0.8695652173913043,-0.6919689379731032,0.2716572647491384,0.006948004688716912,0.001664154748101367,-0.0019776157289325704,0.0033510043769399583
0.8762541806020067,-0.6646955188298557,0.3070272840903609,0.004746063520475532,0.0017491740355170952,-0.00212094020946285,0.0031897543824404373
0.882943143812709,-0.6369595322037745,0.34198700116378417,0.0028845050405886946,0.0018511446027449916,-0.0020711747881232995,0.00301800817621522
0.8896321070234113,-0.6088012930841188,0.3778667842454731,0.0013093608817657627,0.0019626552523185313,-0.001964168154931039,0.0028580169849058653
