# n,energy,berry,bcd_x,bcd_y,qmd_x,qmd_y
0.00000016666666666666665,-3.096678955332265,-0.000000003176082649832122,0,0,0,0
0.006688963210702341,-3.0487325718216676,-0.00013378235972123814,-0.00000000000000000004551934116193162,-0.00000000000000000007696350115493998,-0.00000000000000000009242581502624008,0.00000000000000000003549223491733762
0.013377926421404682,-3.001262547296933,-0.0002754692082366499,0.0000000000000000005715102491280063,-0.0000000000000000008593052254628072,0.0000000000000000004025722277347366,-0.000000000000000000364505037984919
0.020066889632107024,-2.9542100862342355,-0.000419042682537811,0.0000000000000000007985924416550467,-0.0000000000000000014545620314656618,0.00000000000000000012659885519721563,-0.0000000000000000001516109760963281
0.026755852842809364,-2.919594639370375,-0.0004963677555091198,-0.00000000000000000016660724840206658,-0.0000000000000000033536019412254874,-0.0000000000000000019442804297321837,-0.0000000000000000011173203011577741
0.033444816053511704,-2.8955527278903808,-0.0005154440944809346,0.0000000000000000012593873328738641,0.0000000000000000004225409138223432,-0.000000000000000002816944207040351,-0.0000000000000000003080701039791696
0.04013377926421405,-2.87212785911519,-0.0005267717232800939,-0.000000000000000000672227205419772,-0.0000000000000000029390850736292605,-0.00000000000000000153257939476624,-0.000000000000000002154958206090164
0.046822742474916385,-2.848798985619979,-0.000532816806281927,0.00000000000000000129194463878894,-0.0000000000000000026085121941875473,0.0000000000000000027201404680068144,-0.0000000000000000006348548313856669
0.05351170568561873,-2.8255827855844684,-0.0005335341225113226,0.0000000000000000005790947322115285,-0.000000000000000003257249539399721,0.000000000000000002574412692151237,-0.0000000000000000014652657560450627
0.06020066889632107,-2.80247160564463,-0.0005285753993369778,0.0000000000000000014492195754004033,-0.000000000000000004279696676531397,0.000000000000000000924415326940785,0.000000000000000000020662977025710366
0.06688963210702341,-2.7794679735325527,-0.0005177454058108187,0.000000000000000002521828263330708,-0.000000000000000007776676049128501,-0.0000000000000000005078506797736847,0.0000000000000000005334082051423393
0.07357859531772576,-2.7566056857967416,-0.0005008215319777406,0.000000000000000002569419469672543,-0.000000000000000003812343786168656,-0.000000000000000000021166267602281167,0.0000000000000000009493855608533668
0.0802675585284281,-2.7338377960297082,-0.0004776639171403535,0.0000011834950767996539,0.0000028513663879310273,0.00004446815651930296,-0.0000463752747755336
0.08695652173913043,-2.711200117836753,-0.00044768139262614266,0.0000037084068734110924,0.00000405553160046819,0.00003323426052226979,-0.000034570731332715743
0.09364548494983277,-2.6886547970874344,-0.00041098966131596326,0.0000055734460464513765,0.000005295703359300471,0.000029657086121414024,-0.00003103990855268158
0.10033444816053512,-2.6662507069383863,-0.00036783413720038104,0.000007282442745228573,0.000006587463971177652,0.000027645230398554097,-0.000029514603239403632
0.10702341137123746,-2.643967912354361,-0.0003182811589242251,0.000008974216915768018,0.000007956010559941691,0.000025753815689969334,-0.00002863498655616393
0.11371237458193979,-2.621786231511421,-0.0002624216863802185,0.000010716581899219043,0.000009418170348303572,0.00002331157695699087,-0.000027907481736503514
0.12040133779264214,-2.5997332526999495,-0.00020090932012810646,0.00001255229567312798,0.000010990233060198498,0.000019838093486996108,-0.000027092998245588568
0.12709030100334448,-2.5778058918265443,-0.0001343693005207464,0.000015803250896881556,0.000011511139331517849,0.00002566638698260002,-0.00007612966909190318
0.13377926421404682,-2.5560256678401068,-0.00006332483452598162,0.000018119845217641093,0.000012877693335764177,0.000019489938869558374,-0.00007495265882046483
0.14046822742474915,-2.534349009775106,0.00001041974467711855,0.000020423049863734606,0.000014907523650083613,0.000008305158367722667,-0.00006293479934852393
0.14715719063545152,-2.512778927213161,0.00008548783573251529,0.00002314987898318985,0.000017282070585835406,-0.000005153128899614343,-0.000056790947144516845
0.15384615384615385,-2.491348461290332,0.0001588860880215297,0.00002619110732678161,0.000020067706497640544,-0.000022889443932377276,-0.00005099807966028219
0.1605351170568562,-2.470116892526944,0.0002264307029752204,0.000029563530181341387,0.000023316691880531435,-0.00004663543848233042,-0.00004419111365608407
0.16722408026755853,-2.448969848033727,0.00028348772464102835,0.00003326967874281608,0.00002705767214414301,-0.00007806683554568433,-0.00003557381116546662
0.17391304347826086,-2.4279784236339985,0.0003209680704493084,0.00003732737322479307,0.000031358490630277095,-0.00011934181657367582,-0.000024526397813539504
0.1806020066889632,-2.407142977222958,0.00033016281118868084,0.00004172556901859764,0.00003627933443517426,-0.0001732131984364969,-0.000010345367249178203
0.18729096989966554,-2.386474814406681,0.0002938790070107877,0.00004645920409202225,0.000041896659647643156,-0.00024326309334069953,0.000007744536597956026
0.1939799331103679,-2.3659633422519004,0.0001945833412564719,0.000051511564519793604,0.00004830144458984169,-0.0003342340345321598,0.00003069415328250018
0.20066889632107024,-2.3456286471880303,-0.0000008623032113170361,0.00005681705522107249,0.0000555919317752415,-0.00045191724174015483,0.00005964074415311663
0.20735785953177258,-2.3254923682503974,-0.0003487457353978692,0.00006229619914558732,0.00006387221700329631,-0.0006039122772932593,0.00009591447623826282
0.2140468227424749,-2.3055764695685443,-0.0009102572210344677,0.00006779434632526202,0.00007325230886216062,-0.000799526651468945,0.00014117512920991878
0.22073578595317725,-2.2859211933754557,-0.0018082373035291405,0.00007311373381442755,0.00008384283798993417,-0.0010504555996983308,0.00019732327679777693
0.22742474916387959,-2.266537794874335,-0.0032381993528249335,0.0000779783720009072,0.00009576500555027407,-0.0013714988261248479,0.0002667140267637071
0.23411371237458195,-2.247552802649557,-0.005544289790988081,0.00008200080848693827,0.0001090602038815907,-0.0017776114470343636,0.00035163286293739504
0.2408026755852843,-2.229002627373512,-0.009301712377687638,0.00008473702192203419,0.0001237914832208465,-0.0022866964478252825,0.0004548843241116799
0.24749163879598662,-2.2113157757348687,-0.016448499169202282,0.00008532768190982348,0.00013987255146115311,-0.00292513309908408,0.0005804705508781223
0.25418060200668896,-2.1956159081739517,-0.0333287930013951,0.00008345590649797248,0.00015593023149804245,-0.0036471742756661756,0.0007196182081129778
0.2608695652173913,-2.178808826059514,-0.04826447529700946,0.00007834831098640539,0.00017493294798651672,-0.0046013124787092205,0.0009014007371668165
0.26755852842809363,-2.159989016608743,-0.05789094137177264,0.000067323355633907,0.00019874992094362197,-0.0059556861803757005,0.0011589174830503003
0.27424749163879597,-2.139351216589757,-0.06232783761309575,0.00004628037337369192,0.0002282735123898781,-0.007884510638093227,0.0015322623710256032
0.2809364548494983,-2.1173502335270937,-0.06266281883917824,0.000010223118467161218,0.0002638127702431441,-0.010560502776302157,0.0020791766789734867
0.28762541806020064,-2.0942805381379235,-0.058966554578179335,-0.000045804286606129865,0.0003053116600371204,-0.014115829697117261,0.0028940407380951636
0.29431438127090304,-2.0704595806630866,-0.05082197937310756,-0.00012281329213397735,0.0003514110464639093,-0.018440514111305463,0.004118727142717221
0.3010033444816054,-2.0465085610756337,-0.036393828334831256,-0.00020592883037154564,0.00039660286762486043,-0.0225457309290941,0.005937975199170146
0.3076923076923077,-2.0253571228731477,-0.008299409023220437,-0.0002424916740228841,0.00042143561396223083,-0.02361854854427083,0.008027361404140084
0.31438127090301005,-2.009520738108798,0.037188469096396067,-0.00020606922079167636,0.00041058880877924326,-0.020570774580634037,0.009468066520994026
0.3210702341137124,-1.990884334201299,0.07891174877020482,-0.000010922821230603365,0.00027790017810946834,-0.007637561678335852,0.008317240607595915
0.3277591973244147,-1.9686625719548678,0.10897949702838547,0.0001158559328676003,0.00018370950812890196,0.0021290720512922535,0.006452420605993001
0.33444816053511706,-1.9437212657880192,0.12639655807495329,0.00015543485825347025,0.00019713882061534133,0.003969164128516187,0.008786263400541743
0.3411371237458194,-1.9178116202200406,0.13731238361771625,0.0002020624783425293,0.00021585678081364755,0.005944497880001703,0.012809144021466956
0.34782608695652173,-1.8912389038957815,0.14352055084631182,0.00026453133402502425,0.00022889908083284846,0.00894290262546672,0.01888968981772124
0.35451505016722407,-1.8650636553339415,0.14381592504412988,0.0003437419335507475,0.00023160450475984376,0.013321883305876435,0.027922771940711022
0.3612040133779264,-1.8467154556497987,0.12312271104274937,0.0004108675650325436,0.00022530369206366738,0.01759299485043415,0.03713444402680208
0.36789297658862874,-1.82886083149062,0.1072993416875961,0.00136172850795079,-0.00003806155523561016,-0.05983260698738477,0.04527341613122828
0.3745819397993311,-1.8114617646466358,0.09572697229637359,0.0013735439595731088,0.00015870719790459818,-0.058886403725435583,0.0565798491380321
0.38127090301003347,-1.7945955475014996,0.0907369286717302,0.0013350811619667158,0.0002133510644524035,-0.06318328084848865,0.0665839946357468
0.3879598662207358,-1.7784682218788745,0.10241212793527685,0.002832118594208442,-0.00105601154948944,-0.07007233406232548,0.16287278950433792
0.39464882943143814,-1.762726003297222,0.13132577520559782,0.005770598264071635,-0.0034864309853318495,0.22075722322628238,-0.4107311453225918
0.4013377926421405,-1.745507812040557,0.16164264143368645,0.006557638204167637,-0.003980542749400648,2.211587483040618,-5.605305190867683
0.4080267558528428,-1.729102415328218,0.18391307875050064,0.0055059512760599096,-0.0031300933670762618,0.3120648165898514,-1.263200716261661
0.41471571906354515,-1.7141370606356952,0.20005734368569061,0.004512165693356617,-0.0024823741045984483,-0.18768674703525523,-0.015001501171360933
0.4214046822742475,-1.6991958425639313,0.21323495435273873,0.003397409289950901,-0.0019453754524446604,-0.14921661903165742,0.036912080269620264
0.4280936454849498,-1.6833272150978973,0.22464699862495133,0.002131741363063989,-0.0015458195366003609,-0.09327425968798303,0.04739954901447821
0.43478260869565216,-1.666937850359083,0.23528100121396023,0.0027791560562438356,-0.0022670090096563265,-0.07018636778365828,0.03137301754435744
0.4414715719063545,-1.6503677702219328,0.24601683184223558,0.0026956444251131054,-0.002500259414590378,-0.055068619267683326,0.026043701917865206
0.44816053511705684,-1.6335978486659934,0.25684787241177964,0.0024426150840355892,-0.0025985062906247127,-0.04442124743974156,0.022385775782937645
0.45484949832775917,-1.6166728010003175,0.26795791708250016,0.00220431237777379,-0.0026807882561049193,-0.03687082004370277,0.018415858935339584
0.46153846153846156,-1.5996420285738147,0.2794245762479385,0.002032048012807923,-0.0027870641670676728,-0.031510619540388626,0.01441662251486695
0.4682274247491639,-1.5825078266125125,0.2911207462756161,0.0019312961643147852,-0.0029314247520669796,-0.02756745835380643,0.010810802770645883
0.47491638795986624,-1.5652837747167911,0.3039803701631295,0.0018987551922597943,-0.0031249842858164295,-0.02458104481405483,0.00787798632766612
0.4816053511705686,-1.5479915627277852,0.3175542929794049,0.0019153565364573837,-0.003366502015017349,-0.02215508720618085,0.0055708650259679
0.4882943143812709,-1.5306589247002214,0.3322019727791317,0.0019709435615421597,-0.0036562504437172554,-0.02011014697294624,0.0037532492809806894
0.49498327759197325,-1.5132914712173102,0.34800522243662,0.0020623065820235174,-0.003999382797713063,-0.018362499095870156,0.002338541483338334
0.5016722408026756,-1.495892905478357,0.3650250520288426,0.0021895366689786326,-0.00440349057655344,-0.016856224018625368,0.0012460571842447868
0.5083612040133779,-1.4789419181982184,0.38515623865243104,0.0023270394459338666,-0.0048421484952423785,-0.015172206353413077,0.0028638570641178664
0.5150501672240803,-1.4634173844712581,0.4120370298971445,0.002415766309374331,-0.005242176926001493,-0.012483979408089796,0.012159601251942362
0.5217391304347826,-1.448094508713844,0.44058825152562536,0.00263389641749818,-0.005685320488875717,-0.009689983220850832,0.016337991333424288
0.5284280936454849,-1.4329489872349697,0.47161104456192515,0.002922759808108647,-0.006213992753802854,-0.007289109387316377,0.018316719163041156
0.5351170568561873,-1.4179481575366961,0.5047096602584219,0.0032793273776312317,-0.006848367304932772,-0.005326682900879157,0.01878474031293551
0.5418060200668896,-1.4030629515825814,0.5394742416293297,0.0037105057991655955,-0.00762245050758382,-0.0038655468536295356,0.018306545914709742
0.5484949832775919,-1.3884358524987883,0.5784650096997074,0.004260389294136836,-0.00862922789010122,-0.0029042803890950066,0.01740478168121088
0.5551839464882943,-1.3739336013697132,0.6198236975664001,0.0049174957323614025,-0.00983514162353322,-0.002168784852309371,0.01648886357379302
0.5618729096989966,-1.3595643969622186,0.6634526940841206,0.005692971398357229,-0.011254229956973116,-0.0016109649115156612,0.015646350098636196
0.568561872909699,-1.3454535703830044,0.7103765230055488,0.00668052021078576,-0.013034323958493658,-0.0011840931500274223,0.015137891726004089
0.5752508361204013,-1.3315025705146042,0.7610906177686807,0.00794374689590914,-0.015243270236889334,-0.0007332633264141508,0.015202506888635016
0.5819397993311036,-1.3176988221111134,0.8147117367839044,0.009468475190380214,-0.01783225729460123,-0.00020207779059932358,0.015883284462165182
0.5886287625418061,-1.3041265983668813,0.8722539650721142,0.011412708602536532,-0.021002052171153897,0.000520170791260353,0.017630775704909007
0.5953177257525084,-1.290796330308705,0.9347948787003215,0.014082744184878718,-0.025026230231284075,0.001727278011718754,0.02161015369924699
0.6020066889632107,-1.2776191128688184,1.000032112951216,0.01736943092568546,-0.029644635844542015,0.0033990199969058813,0.027807919778573987
0.6086956521739131,-1.2646837376217874,1.0689688685476646,0.021820342897431393,-0.035266811406041466,0.005995253967627056,0.03848295935318882
0.6153846153846154,-1.2520085071775926,1.1409641064978473,0.02852684703573171,-0.04179540594315121,0.010361745777131656,0.05976430107300293
0.6220735785953178,-1.2394823372320385,1.2145560181498545,0.03776298413302817,-0.049000652027284264,0.016245355669886156,0.09228318242266421
0.6287625418060201,-1.227319388511769,1.2910035113310505,0.061382386607006706,-0.05889960781177466,0.029165933196486526,0.18646646016940482
0.6354515050167224,-1.2153760043477135,1.365943168268156,0.053598700064530505,-0.04741838437964488,0.02737119343607792,0.1804927820980617
0.6421404682274248,-1.2037114121726669,1.4389682508639425,0.005940956438807432,-0.008789688732700293,0.006891686670970103,0.047344857840877136
0.6488294314381271,-1.1924075562741472,1.5023641418392453,-0.008344040161013075,0.0024676539241356953,0.00026187345880592904,0.008940435938335675
0.6555183946488294,-1.1812502670454048,1.5618477050552042,-0.0090697339926499,0.002604052234386978,-0.0007408276674047629,0.009030173139557302
0.6622073578595318,-1.1708388424617264,1.598371023072236,-0.009941575807940403,0.0028126495259787263,-0.002088192185993589,0.009418592443484563
0.6688963210702341,-1.1605075761770711,1.6324267965924566,-0.010829124191242715,0.0030290060639347246,-0.003472597783619099,0.009839111203338448
0.6755852842809364,-1.1517028952604564,1.633761121711307,-0.011872721610944447,0.0033912110131879515,-0.005323128502095528,0.010663261760375504
0.6822742474916388,-1.142978113663002,1.6333828524977725,-0.012924486416515949,0.0037610494620195323,-0.0071980555501708066,0.011508537834833035
0.6889632107023411,-1.1337517173350948,1.6008433645204003,-0.014845163923232898,0.004989519127168703,-0.010090805057047625,0.013513901414552715
0.6956521739130435,-1.1242407337872355,1.55005745895873,-0.017258812299798462,0.006705126541632927,-0.013561008227802766,0.016177431626910745
0.7023411371237458,-1.114155449399482,1.4783495415476764,-0.03051441230632717,0.018691324900464133,-0.012062476619094896,0.04716693881637132
0.7090301003344481,-1.103533453604691,1.387089010527684,-0.05390233096909101,0.04027587822230517,-0.005920426405793456,0.10462841662300378
0.7157190635451505,-1.092556234738128,1.288656868264967,-0.06539112933809411,0.05299680395715585,-0.01636252540815657,0.14227825860086774
0.7224080267558528,-1.0813591360718184,1.185785564896973,-0.06951448217368826,0.060231226101095686,-0.037070059564574966,0.16766488102786783
0.7290969899665551,-1.069886747801477,1.0897814143434656,-0.07999074248910786,0.06544745783214123,-0.12402785956825436,0.20904063261198125
0.7357859531772575,-1.058336609217349,0.996438698922773,-0.08807121518189769,0.06802949473437368,-0.21043951276643932,0.2431542414331057
0.7424749163879598,-1.046568254917691,0.918597666568103,-0.04281059461351832,0.04025280710579458,-0.08106844062628993,0.12584808773505077
0.7491638795986622,-1.0347802594316624,0.8474212629438512,-0.012243214872585494,0.0204944206620647,0.0022609424511609347,0.046084153721029135
0.7558528428093646,-1.0229562213526238,0.7884747977949127,-0.008638692117592387,0.01545003167173743,0.0011014444051416694,0.03521213485104266
0.7625418060200669,-1.011154558359455,0.73990232698462,-0.006032030865421577,0.011728877000536054,0.00042015353690926383,0.027479522109744022
0.7692307692307693,-0.9993651267172193,0.6970008049284494,-0.003970851060559465,0.008731068975621592,0.00000027484132286866286,0.021463067165818007
0.7759197324414716,-0.9877590228592601,0.6678479064710094,-0.002701629380266578,0.006872544208043032,-0.0001779513129096113,0.017945618529034636
0.782608695652174,-0.9762726881173441,0.6422883334294722,-0.0015802250361317814,0.005234466702024194,-0.0003245583105732486,0.014897500720813864
0.7892976588628763,-0.9652277251890017,0.6276226413164595,-0.0008425095417835295,0.004180503908228034,-0.0004096593277132029,0.013072040909773078
0.7959866220735786,-0.9548130966177377,0.6157125612135618,-0.00021567051732716881,0.003302726138144821,-0.0004891228027387255,0.0116011524807774
0.802675585284281,-0.9454774686418805,0.6085195125817154,0.00022137117863760855,0.0027265402825006977,-0.0005589359846621929,0.0107372161051556
0.8093645484949833,-0.9358646566736398,0.6056673312950668,0.0006560404197578647,0.0021762652824568684,-0.0006374982277057844,0.009957668057051793
0.8160535117056856,-0.9251952093854781,0.6193626920096252,0.0010816657779248412,0.0017247633932309526,-0.0007494122055165171,0.009499811339958242
0.822742474916388,-0.9139969586245119,0.640724296871462,0.0016141105767231033,0.001274651181834589,-0.000961074411766372,0.009247506891268987
0.8294314381270903,-0.9016594194631835,0.6786025539122633,0.00237669408659866,0.0008275329822268636,-0.001387640652240309,0.009438057543018482
0.8361204013377926,-0.888527232306823,0.7333222162111108,0.012053150056476529,-0.0036724171063918266,-0.021565317594304897,0.020046644839154096
0.842809364548495,-0.874838074059757,0.8002313547789865,0.024432670260796163,-0.008871570105285264,-0.05326730710733638,0.039563732805463464
0.8494983277591973,-0.8603437846315047,0.8858700766331065,0.030516175060693908,-0.008917306223762026,-0.0949521779388218,0.07658276457731729
0.8561872909698997,-0.8450949604505529,0.9895216194666573,0.02190129209342439,-0.005513689652632044,-0.0720248696654809,0.06602982545891928
0.862876254180602,-0.8292254210181405,1.1079624431980857,0.013099740318399737,-0.003006572113647871,-0.04275440708858849,0.04926615884947557
0.8695652173913043,-0.8126836683602194,1.2421353905245722,0.007531942635682944,-0.0018216518317285637,-0.026071495278207246,0.03611591829964235
