# n,energy,berry,bcd_x,bcd_y,qmd_x,qmd_y
0.0000015,-3.3999956162668696,-0.00000000000000001899043621878579,0,0,0,0
0.006688963210702341,-3.351783911384226,-0.000003913635226281614,0.000000000000000000014975681932451203,-0.000000000000000000009566082154756345,-0.000000000000000000002508094280499107,-0.000000000000000000007685300366271327
0.013377926421404682,-3.3043690689351815,-0.000030082262701004336,-0.00000000000000000009972395444705696,-0.00000000000000000008698548372258296,-0.000000000000000000007628948713841363,0.000000000000000000042510405021059976
0.020066889632107024,-3.2575603721351656,-0.00010209737988201018,-0.000000000000000000009975098331293935,0.00000000000000000009946584948509268,0.00000000000000000009732123124022706,0.00000000000000000010382185381595972
0.026755852842809364,-3.2115139690117376,-0.0002459094981243389,-0.00000000000000000015057327314071374,-0.00000000000000000028918276232597145,0.000000000000000000047817921267978587,0.0000000000000000002131709923809534
0.033444816053511704,-3.1660176836481724,-0.0004902687892217387,0.0000000000000000005001029066646384,0.0000000000000000015315994337136885,0.00000000000000000037880919722751903,-0.00000000000000000006607403241994078
0.04013377926421405,-3.1212287729863775,-0.0008669894799897976,-0.000000000000000000901165013694435,0.00000000000000000499412377496655,-0.000000000000000001007214200973506,0.000000000000000000037707090387015523
0.046822742474916385,-3.077106667585616,-0.001410421397352475,0.0000000000000000014068602062173309,0.000000000000000000450872992542934,0.000000000000000002172898850402846,0.0000000000000000010303810749045778
0.05351170568561873,-3.033633810594164,-0.002158789947457066,-0.0000000000000000005869598945376335,0.0000000000000000009170234491186683,0.0000000000000000015601447120148968,0.00000000000000000019375573236950209
0.06020066889632107,-2.9908333082977765,-0.003155765788408994,0.000000000000000002798776768615339,0.000000000000000004148211285120804,-0.0000000000000000023009088203285996,-0.0000000000000000006800784056589053
0.06688963210702341,-2.9487277232280804,-0.004445046929007629,0.000000000000000007788025218282207,-0.0000000000000000014940753061430401,-0.000000000000000009443495896480284,0.0000000000000000022449054439774138
0.07357859531772576,-2.9069451320748034,-0.006080131238727141,0.00000000000000000460751279876292,-0.0000000000000000009927538561219806,-0.0000000000000000012890964894030756,0.000000000000000010378779659781058
0.0802675585284281,-2.8659598038253127,-0.00811376337611781,0.000000000000000005215367220618857,0.00000000000000000053007092464177275,-0.000000000000000017379813966980557,0.00000000000000002026914981331481
0.08695652173913043,-2.8256922818818655,-0.010612009882190937,0.00000000000000002871899216604213,-0.00000000000000004142564129629269,-0.000000000000000010226282482133235,-0.000000000000000010136621713058807
0.09364548494983277,-2.785871883806159,-0.013665893093939221,0.00000000000000002967636450565812,-0.000000000000000030228512698933116,0.000000000000000048274049698451735,-0.000000000000000003596139929706097
0.10033444816053512,-2.7469179526818346,-0.017328771621138057,-0.000000000000000018913084553021872,-0.00000000000000004090301321428493,-0.0000000000000000006279730830269779,0.000000000000000012182242225401791
0.10702341137123746,-2.7083907077361316,-0.021682673125096363,-0.00000000000000003878906614197925,0.00000000000000001505233955136085,-0.00000000000000002070832697050648,-0.000000000000000014557088679906075
0.11371237458193979,-2.670378638933818,-0.026833076724918706,-0.00000000000000009169973026110139,-0.00000000000000005425407961226808,0.00000000000000005268938776628616,0.000000000000000044456268725902634
0.12040133779264214,-2.6332980489361795,-0.0329294695181733,-0.000000000000000019594355685382403,0.00000000000000016156463182184794,-0.00000000000000002925209894990053,-0.000000000000000008839054117721591
0.12709030100334448,-2.599013159926438,-0.03952255130139378,0.00000000000000013768720054611567,-0.00000000000000014563764151569724,-0.00000000000000011358138086727026,0.000000000000000011980596759353808
0.13377926421404682,-2.5773060018311784,-0.04426245799181737,-0.000000000000000006797568142346288,0.00000000000000014954197703739836,-0.0000000000000001089870518169045,-0.00000000000000003397595944810253
0.14046822742474915,-2.5568331628412677,-0.049203634206762055,-0.0000000000000001815033969757704,-0.00000000000000010622143496668413,0.000000000000000007986691766758336,-0.00000000000000010666478475506546
0.14715719063545152,-2.536446612489364,-0.05462669227860287,-0.00000000000000010778482111771454,-0.00000000000000006680764161048814,0.0000000000000002010163824166481,-0.00000000000000002685542724401883
0.15384615384615385,-2.5162977523562624,-0.060550298076617895,-0.0000000000000002422810830877988,0.00000000000000003041127894958577,0.000000000000000046846166021025393,0.00000000000000010153295194522744
0.1605351170568562,-2.4962645206362013,-0.06700641075792829,-0.00000000000000026283178292595028,-0.0000000000000003283113244189361,-0.00000000000000008025496143972459,0.0000000000000000347164430817967
0.16722408026755853,-2.476457885638346,-0.07397713326425945,0.00000000000000010155894546813492,-0.00000000000000030263224919841116,-0.00000000000000007611591033769997,-0.000000000000000017165795226475097
0.17391304347826086,-2.4567474798033593,-0.08154703061911385,-0.00000000000000007989417284651927,-0.0000000000000006590040239936708,-0.00000000000000011879962395730865,0.000000000000000011053747535071985
0.1806020066889632,-2.437267155408353,-0.08977657518823799,-0.00000000000000016173830376821546,-0.0000000000000005265986804185975,-0.00000000000000008755598664390031,0.00000000000000005962562951070756
0.18729096989966554,-2.417984861238509,-0.09869397551019701,-0.00000000000000008238134675112614,-0.0000000000000000933481865223622,0.00000000000000005425003740517685,0.00000000000000006063778493330015
0.1939799331103679,-2.398808351809104,-0.10835461024830592,-0.00000000000000020758597252849688,-0.00000000000000020508931847107742,0.0000000000000001132243506065417,0.000000000000000025809129051539145
0.20066889632107024,-2.3799178402424497,-0.11880510825315263,0.00000000000000010462689272292989,-0.00000000000000018828439840432556,-0.00000000000000013346601775036017,0.000000000000000053270585574100174
0.20735785953177258,-2.3611718094102283,-0.13017663476503574,-0.0000000000000003270289087733342,0.0000000000000004467923218465228,-0.0000000000000002925310405883043,0.00000000000000010992956231879308
0.2140468227424749,-2.342503833142903,-0.14264626178378853,-0.00000000000000041166946263591358,0.000000000000000913222046427038,0.00000000000000018291657514861533,-0.00000000000000020911694685696964
0.22073578595317725,-2.324114797322621,-0.15606747511347407,-0.0000000000000003030594214788387,0.00000000000000031076901935789325,0.0000000000000004383311496620905,-0.00000000000000011532600995040655
0.22742474916387959,-2.305937362306801,-0.17060567092984566,-0.00000000000000021193810315835318,-0.00000000000000004262352092967726,0.0000000000000002979586114634168,0.000000000000000018609968056209984
0.23411371237458195,-2.287925715592852,-0.1863499166825423,-0.0000000000000002511024822341498,0.000000000000000021798880476033216,0.000000000000000055078848616904224,0.00000000000000003235867044525004
0.2408026755852843,-2.270105507496775,-0.20324015543089408,-0.0000000000000004104820039949312,-0.0000000000000008919379641426903,0.0000000000000003172317895740073,0.00000000000000019701191719492295
0.24749163879598662,-2.2524517386933827,-0.22208151175127497,-0.0000000000000004346060081172495,-0.000000000000000729610130085141,-0.0000000000000001649053845401292,-0.00000000000000029373226871628273
0.25418060200668896,-2.2351024219531883,-0.24243145065603014,-0.0000000000000007100832496145901,-0.0000000000000003070863157238816,-0.00000000000000011944036375600805,-0.00000000000000016004806713204274
0.2608695652173913,-2.2179612223308864,-0.26445098919279353,-0.000000000000000455405437068136,0.00000000000000039557896180401356,-0.00000000000000004838747072757876,-0.00000000000000008332976802525747
0.26755852842809363,-2.2009918616192805,-0.28827612101501443,0.00000000000000030393582381154045,0.0000000000000009477065314123101,-0.00000000000000005747889179714867,-0.0000000000000002342855879130411
0.27424749163879597,-2.1842535399017793,-0.3144338438343136,0.00000000000000026847129975926737,-0.00000000000000024842694149658563,0.0000000000000002932582484759668,-0.00000000000000013317723342388032
0.2809364548494983,-2.167705700397366,-0.3432733328929659,-0.000000000000000007526392438152373,0.0000000000000010590966681602689,0.0000000000000005226936772887807,-0.0000000000000004939161740557144
0.28762541806020064,-2.1514198464125847,-0.3746052056822631,0.012638208915307736,0.0000000000000014009386708747857,0.0000000000000002840839519451197,-0.005736632413583246
0.29431438127090304,-2.1353919448803693,-0.40849210058610036,0.033813785891394055,0.0000000000000005287488861415249,-0.0000000000000002591608441751238,-0.015441127663769552
0.3010033444816054,-2.1196160566109272,-0.4464221263657955,0.030903751330740213,0.0000000000000005731006795989447,0.000000000000000030242941039701454,-0.014828190021064641
0.3076923076923077,-2.104181339534753,-0.4882288017986639,0.028840059048108158,0.00000000000000039652897136273665,0.0000000000000001741985461677602,-0.01405032474092045
0.31438127090301005,-2.089045588384758,-0.5334069696544707,0.02699240294274582,0.00000000000000005349246660100682,0.00000000000000016693017994419943,-0.013112460239227245
0.3210702341137124,-2.0743494365539323,-0.5835143242287056,0.024882053007886186,-0.0000000000000005043591910416172,-0.00000000000000008894225310758729,-0.011922246935330639
0.3277591973244147,-2.0599972901449557,-0.6404708015227275,0.022405423678927838,-0.0000000000000006082024682079277,0.000000000000000042126518280166935,-0.010556089054725852
0.33444816053511706,-2.0458898396309397,-0.7020012540643359,0.019744408047358455,-0.0000000000000004040577320031282,0.00000000000000035079803862514433,-0.009118278403033614
0.3411371237458194,-2.0322960003170145,-0.7726908871700879,0.016809229037948535,0.00000000000000042438431892078466,0.0000000000000008875601677368261,-0.007609355847564234
0.34782608695652173,-2.0192549950103773,-0.8528978476104268,0.013803256770960153,0.0000000000000002437779979176736,0.0000000000000007529606041915036,-0.006128389402507227
0.35451505016722407,-2.0065999230750826,-0.9397488534169927,0.010747863737149452,-0.0000000000000006412449018278046,0.00000000000000014968350268337847,-0.004666939115643924
0.3612040133779264,-2.0063344164952497,0.1133265257210157,-0.4297518400198512,0.8290935047295686,2.1550876627301037,-0.9969377853215995
0.36789297658862874,-1.9861595159096397,0.1749181060644879,-0.22759348908305704,0.426060300959171,1.1572887341168139,-0.542084821056362
0.3745819397993311,-1.9615622457601896,0.23222661667955752,-0.09419497439139184,0.1725491887058185,0.42315442059026964,-0.20112138317595996
0.38127090301003347,-1.967874857884802,-1.5352447348185476,0.001760838230415418,0.0000000000000012977275890335215,0.0000000000000006716685124758006,-0.0007306142039380742
0.3879598662207358,-1.960093862068597,-1.724844776001181,0.00018618585034528044,0.0000000000000023733327007688792,0.0000000000000008894031859400483,-0.00007348765974126625
0.39464882943143814,-1.9488137025891752,-1.850920173182631,0.00009065946207709585,-0.0000000000000003932274897538343,-0.0000000000000007450497002277798,-0.000035783340619043055
0.4013377926421405,-1.9374015619484515,-1.974935872728137,0.0000000000000014753504582939719,-0.0000000000000029796315244182853,-0.0000000000000021614806313672554,0.00000000000000043737043433123574
0.4080267558528428,-1.9235309206824809,-2.0605842183586294,-0.0000000000000008362549044631885,-0.0000000000000022101473592042724,0.0000000000000004833279921922061,0.0000000000000015350272762762502
0.41471571906354515,-1.909204042055429,-2.1407642989471722,-0.0000000000000017678001285234049,-0.0000000000000009528375409807724,0.0000000000000010959093731157409,0.0000000000000018050418780058404
0.4214046822742475,-1.8943286148784748,-2.2143697122350514,-0.0000000000000010400555783619778,0.0000000000000008910004255058283,-0.0000000000000007349200713645662,0.0000000000000010799561450500025
0.4280936454849498,-1.8788470638858468,-2.2810446217923097,-0.0014475627624311903,0.0000000000000009689146344400184,0.0000000000000006366188336208383,-0.0005151844648613105
0.43478260869565216,-1.862999693517572,-2.3446716148414346,-0.0016327737991913868,0.0000000000000013853613017253686,0.0000000000000011578844389410858,-0.0005873767099039496
0.4414715719063545,-1.846809619257855,-2.4052501004393787,-0.0008186872837234655,0.0000000000000017001674025814257,0.000000000000000716247791889445,-0.0003084127533585416
0.44816053511705684,-1.8303885325654232,-2.462622542973274,-0.0007024561067076015,-0.00000000000000027037530319499703,-0.00000000000000037400251787322025,-0.0002730674838938217
0.45484949832775917,-1.8731568936057599,3.039134514062927,-0.0030305065154904625,-0.0033080416841882957,-0.0315849472146473,-0.02333665645326955
0.46153846153846156,-1.8539105863851988,3.2160951739981973,-0.003606463153438139,-0.0032630438958147095,-0.031189417681796748,-0.024390665048385336
0.4682274247491639,-1.8326983394102783,3.4114501643945516,-0.004385658895776809,-0.0030617557200241295,-0.030930233254755267,-0.025749344870616166
0.47491638795986624,-1.8092979328618646,3.6326006694155826,-0.005474311581217761,-0.002632610127613605,-0.030994845589832783,-0.027586698175105492
0.4816053511705686,-1.7829709835226677,3.895061773212831,-0.0071268612870290845,-0.0018757223902667423,-0.032753564665151044,-0.030974904335223652
0.4882943143812709,-1.7519190187858544,4.232298392386014,-0.00969474034913459,-0.00017076591111348156,-0.04008464559948217,-0.037551679213939586
0.49498327759197325,-1.7189034599936308,4.642108681489212,-0.01506852700330464,0.005043414878552777,-0.043398336588669,-0.04273055368802384
0.5016722408026756,-1.694041494379344,4.976982475027235,-0.010909249423635638,0.006243176644410051,-0.0380297770428324,-0.034919274663007
0.5083612040133779,-1.6745078720275326,5.264849872877226,0.0003520107053320362,0.0024474586320972873,-0.033339864109549505,-0.02309384371680892
0.5150501672240803,-1.65481313389042,5.57862617696223,-0.0007005025703106164,0.00393115105499775,-0.0320822665234116,-0.020204136453521714
0.5217391304347826,-1.6333308093979126,5.772952435111495,-0.002887173140422362,0.006191469143759878,-0.024965798734927686,-0.010314759676503638
0.5284280936454849,-1.6087944626297965,5.648580816157064,-0.0011867924453617207,0.006482068611715403,-0.027563425071307927,-0.016242702986524225
0.5351170568561873,-1.585687436679956,5.524920618715806,-0.0010797475641520513,0.00771985405358896,-0.027125406215015146,-0.017612777482848747
0.5418060200668896,-1.563863140753806,5.3994397571635995,-0.0013452106130434967,0.009161553464631194,-0.025952965618421506,-0.01817544662243544
0.5484949832775919,-1.5431684243939254,5.269541292028935,-0.0018367616620018252,0.010691532103943167,-0.02416268281918982,-0.01811729233783912
0.5551839464882943,-1.523497302911305,5.132721542169698,-0.0024809469884029553,0.012231526585109629,-0.0217960022419908,-0.017453143758519387
0.5618729096989966,-1.504773218731236,4.9866502036202744,-0.00321509874935931,0.013709615080167431,-0.018912032490355047,-0.016204883249091764
0.568561872909699,-1.4869318611905957,4.829182852107498,-0.0039838551830807135,0.015067867335951127,-0.015588552761529878,-0.014427606841664284
0.5752508361204013,-1.4700745087852638,4.655326255272221,-0.004731046400539821,0.016230671545056995,-0.011852152750259682,-0.012131587950637296
0.5819397993311036,-1.4542666693855557,4.453887041402918,-0.005389976095502103,0.017124483880136654,-0.007620150127680944,-0.009314198199348915
0.5886287625418061,-1.4394560578158526,4.213449502798724,-0.005951488470646336,0.017793597898155794,-0.0028281269977320717,-0.0060585183353486375
0.5953177257525084,-1.4254703515688416,3.9388904071125177,-0.0064304440898325915,0.01828133981219241,0.002440118392162771,-0.002448600335407427
0.6020066889632107,-1.4128725877587915,3.6214472614194033,-0.006750725625460739,0.018428603551906345,0.010630533315390229,0.002946997105875526
0.6086956521739131,-1.4002704645702608,3.334379167001008,-0.007041605493731794,0.018466419379807787,0.02245877437411168,0.01055798686927634
0.6153846153846154,-1.3875579338697694,3.1330777910457557,-0.007263678903219519,0.018230340936224245,0.043986671491327387,0.02407551638997025
0.6220735785953178,-1.3748037757332603,2.9352992683077135,-0.007883321268211469,0.0179350266511081,0.03884375250433149,0.027181138898287934
0.6287625418060201,-1.3620198199516906,2.7400424653729356,-0.008787550428747626,0.017597310317014704,0.014609397969959803,0.022833736689425652
0.6354515050167224,-1.3851295124138125,2.7119306598520594,-0.010576814174996318,0.01578180338299334,-0.011515654742563624,-0.019910504195369286
0.6421404682274248,-1.3671105827610786,2.294572956375799,-0.010918332122168743,0.015627208369592114,-0.007309138980517445,-0.016133342398900106
0.6488294314381271,-1.3501851371451816,1.8149692823258083,-0.011077202758713869,0.015330463878640743,-0.0040277579537106615,-0.012914181591845968
0.6555183946488294,-1.3355142409087128,1.192292148031838,-0.01104864603357882,0.0149482115549686,-0.0016885802283208478,-0.010450938850042639
0.6622073578595318,-1.3217270053781411,0.7241926485074893,-0.01089851460192469,0.014537809446656998,0.0015572712029191314,-0.006974110248052577
0.6688963210702341,-1.3934421405867143,4.642209988410412,0.27389168459136515,-0.031066617327104928,0.032754136591558666,-0.1351252377557166
0.6755852842809364,-1.3671827190726327,4.735505542851937,-0.267652917147987,-0.048781180414319225,0.05285611692782263,0.9457135572558144
0.6822742474916388,-1.337539425220861,4.684249233488867,-1.0375965192355847,-0.05565943524898678,0.061479211843438554,1.5892921309586947
0.6889632107023411,-1.3009524489524598,4.112841276729562,-0.8890176592352171,-0.052532621069803026,0.05733620158779578,1.3838561545817676
0.6956521739130435,-1.2681027278377364,3.608171069252356,-0.7995592453103997,-0.04393252493916676,0.04730688784967925,1.0340059993771966
0.7023411371237458,-1.2385466482187202,3.1726059626151555,-0.8181600414486191,-0.035126715442294856,0.03772783614580865,0.7122988336496671
0.7090301003344481,-1.211603188302274,2.794361976804878,-0.9089752292583807,-0.02757188213999428,0.029945902912519962,0.46972310676924506
0.7157190635451505,-1.1869971497541152,2.464599156621033,-1.0335598441313163,-0.021400579904187762,0.023904344341765322,0.3084092093673738
0.7224080267558528,-1.1648732343989756,2.177644068564393,-1.1614164386321115,-0.0165399278712709,0.01938377963747444,0.21823300161021728
0.7290969899665551,-1.145269826533541,1.9203923108950796,-1.2735106261787503,-0.012638288015957328,0.015909390402616377,0.17650064640905092
0.7357859531772575,-1.2164609854847803,3.3485469727666777,0.00997115238303747,-0.020088720846430968,0.013197080135642702,0.0015924235326288476
0.7424749163879598,-1.191714829949375,3.4337568944731727,0.008715101884396404,-0.017855717617297512,0.020135229332866912,0.007855482634169329
0.7491638795986622,-1.1668956520112923,3.4817277431228977,0.006753542464876403,-0.01507166505937085,0.0243510873861644,0.011715481552157337
0.7558528428093646,-1.1422615121879478,3.4985153834515175,0.0045144921513734304,-0.01228336121048911,0.0262632793641058,0.013422785637334402
0.7625418060200669,-1.1178730917779414,3.4902923572596967,0.0023295219935637514,-0.009791282059193898,0.026672691779560755,0.01380470018796739
0.7692307692307693,-1.093903130284853,3.4591768588022775,0.00036487970237893564,-0.0077045524935407134,0.025964959583524364,0.013355774428808347
