# n,energy,berry,bcd_x,bcd_y,qmd_x,qmd_y
0.00000022222222222222224,-3.213123176566209,0.000000007567496049975057,0,0,0,0
0.006666666666666667,-3.1666132168200676,0.0002380803709045553,0.00022913920228282894,-0.0003968777093222233,0.0004061440723624355,-0.00023448125419395422
0.013333333333333334,-3.1208606975111204,0.0005076685702955139,0.000656128857977164,-0.0011364297671471158,0.0010948540641899471,-0.0006320981183198782
0.02,-3.0758390704925502,0.0008250890450376479,0.0012104305802606574,-0.0020965031387341574,0.0018738775616543766,-0.001081856307862166
0.02666666666666667,-3.031578197839868,0.0012093341140965717,0.0018496868641966861,-0.0032037110601737923,0.0025886284448558535,-0.0014944958944390684
0.03333333333333333,-2.9880912472254666,0.0016808614124953958,0.0025356531317305264,-0.004391817015058933,0.003062724108152832,-0.001768191818894158
0.04,-2.9453586066674977,0.0022597990442184378,0.0032323184627491616,-0.0055984563721379445,0.0030785604031281725,-0.0017772825070720766
0.04666666666666667,-2.914351304445315,0.002789983304139705,0.0037738615677142227,-0.006473096252917761,0.002893507659003269,-0.001212813720301633
0.05333333333333334,-2.8925870368330884,0.0032335700610614986,0.004118117319149837,-0.007253868037409386,0.0025828315194134635,-0.00030904818634949603
0.06,-2.8710217707986683,0.003720136488005863,0.004405107101895475,-0.00842521734611012,0.00036878610339350563,-0.00008374038391576258
0.06666666666666667,-2.849660298426872,0.004251952471954155,0.0050530689157237095,-0.009333041052252727,-0.0016588306417235315,0.001145122464877497
0.07333333333333333,-2.828512508910472,0.004833580922563664,0.005641245927637471,-0.01030432424332391,-0.004280095083408188,0.0026500877893340033
0.08,-2.807578923211829,0.005464307972944931,0.006227568106194426,-0.011296654949435866,-0.007578719293117811,0.004517118566099305
0.08666666666666667,-2.7868758765900026,0.006144524489405754,0.006817644399985122,-0.012297572885657974,-0.011651889407723229,0.006801194309472243
0.09333333333333334,-2.766393370712967,0.006878112847491918,0.00741463996085314,-0.01330341004993088,-0.016618409229814852,0.009567136113525433
0.1,-2.7461117202255987,0.007666033606798616,0.00802438332399913,-0.0143185819087088,-0.022622832210579806,0.012894480885914793
0.10666666666666667,-2.72607649410652,0.008509369069785949,0.008655755222838478,-0.015353844064839193,-0.029811061013944373,0.01686675247323334
0.11333333333333333,-2.706287828175294,0.009406103091971065,0.009326336984117558,-0.016435162479422265,-0.038363557545983085,0.02158877865623093
0.12,-2.686759326099499,0.010356798802668288,0.010063242176439826,-0.01760509921156668,-0.04847779715224619,0.02717866365450302
0.12666666666666668,-2.667494873558205,0.011356764644461123,0.010906983571538936,-0.018929379480424988,-0.060377496305675626,0.033773175576357645
0.13333333333333333,-2.6484746422663417,0.01240783089760076,0.011925207969988949,-0.020519027761238363,-0.0744113341689558,0.041580902122276046
0.14,-2.6298147123290065,0.013507533385640471,0.013235245683565496,-0.022569966862875362,-0.09101136276166999,0.050869528702136055
0.14666666666666667,-2.611481970986087,0.014645660758139993,0.01573486991597894,-0.024862272465937914,-0.11096879074182807,0.06134385838125668
0.15333333333333332,-2.593520019322744,0.01581120270131673,0.01797120568252869,-0.02855322750054275,-0.13299275928592452,0.07394487716095419
0.16,-2.576005791196056,0.017005238418072027,0.02084727029991365,-0.033737881918690094,-0.15816763813229098,0.08852360146270148
0.16666666666666666,-2.5590840000383293,0.018240438077194,0.024965697100262422,-0.04056633811930509,-0.18711126574280518,0.10504222973825247
0.17333333333333334,-2.5428656022080585,0.019528015190526132,0.030212840727825842,-0.049256146954763796,-0.2193409598434525,0.12350157876778646
0.18,-2.5275630226741703,0.020854542446359425,0.037002067436248315,-0.060555597172250564,-0.25049715694037344,0.14140952150224786
0.18666666666666668,-2.511397239541141,0.021719327061357253,0.04576914210699753,-0.07520432602607731,-0.2658507970501815,0.15024097352985621
0.19333333333333333,-2.494662070556547,0.021989066617531007,0.057237896111812264,-0.09446185580516932,-0.2592132739184332,0.14642925927262251
0.2,-2.4777438009601895,0.021476655257299547,0.07215440794252295,-0.11963576206087781,-0.22363048537530505,0.12595444396804514
0.20666666666666667,-2.4608419342343417,0.01969665254772458,0.09181834559747584,-0.15298899522998077,-0.14604809025658566,0.08125526419463347
0.21333333333333335,-2.4443481803017297,0.015086708111462375,0.11654281503746025,-0.19510190805198896,-0.002649894674518344,-0.0014852691061796458
0.22,-2.42881493778223,0.005068775818791246,0.1407883125166939,-0.23642475482456912,0.19371985559679777,-0.11478020508705213
0.22666666666666666,-2.4132733030591558,-0.0077088570273023006,0.16455379805805662,-0.27691641906897474,0.41624558630978875,-0.24321362291139292
0.23333333333333334,-2.396270714697286,-0.020502406573717765,0.18825150944447364,-0.317230556560337,0.6408352037399182,-0.3730013704666967
0.24,-2.378050144369935,-0.03379395105976791,0.20976509564980533,-0.353753401839883,0.8575216540032855,-0.49851368167253296
0.24666666666666667,-2.359211015826113,-0.04823829595997982,0.22908992410141868,-0.38652354619073387,1.0688196753603851,-0.6213340792527675
0.25333333333333335,-2.3399880898668193,-0.06395638667223086,0.24650831520009184,-0.41602671639410993,1.275338835720237,-0.7422607989995743
0.26,-2.3206702164976316,-0.0811744381494813,0.2626748443989274,-0.44336808071756056,1.4778429359306977,-0.8619473124900869
0.26666666666666666,-2.3017577436579737,-0.09966598808265956,0.27871962075550594,-0.47045101517190496,1.6760836700867552,-0.9807660118932067
0.2733333333333333,-2.2836943393306806,-0.11929438481121235,0.2954053759426591,-0.49849105267152,1.869593995796824,-1.0988249565241488
0.28,-2.265560482850866,-0.14256351952503038,0.31476729518242286,-0.5307359219345634,2.065586990438256,-1.2217322293333202
0.2866666666666667,-2.2454892198954366,-0.1759486814354591,0.3435553315095744,-0.5780984089066546,2.2796383683964865,-1.363160615104942
0.29333333333333333,-2.2258505798329646,-0.21565953076092392,0.38249955510023753,-0.6409091932100606,2.5447646306639204,-1.5458006342310593
0.3,-2.2097672924381087,-0.24656034798395082,0.4103874355724201,-0.682197672379036,2.9467867524739333,-1.8184244909146843
0.30666666666666664,-2.195052246538543,-0.28944861626201324,0.4772891940744205,-0.7792504505312443,3.566511047936328,-2.266920590056937
0.31333333333333335,-2.1789756865679686,-0.3635127664072686,0.6517499332205746,-1.11233304322177,4.60025242691213,-2.797253967885436
0.32,-2.160775096223751,-0.5364103488654719,1.3781280319838172,-2.4802477433753882,6.485460864453292,-3.682105017737465
0.32666666666666666,-2.1411040091800815,-1.5571047486977871,6.335298445746542,-14.6528706724745,11.23522760695191,-5.36591307523473
0.3333333333333333,-2.120283573589603,-3.668865193680102,13.774878394510353,-36.639466353462545,18.621366650184516,-6.926141300948979
0.34,-2.099709908066644,-0.8543546489245936,-6.816996225040814,12.713471747867716,10.676228001417334,-5.7700473878446
0.3466666666666667,-2.080849548250216,-0.13402014272062504,-1.8367846935138912,3.352413163583453,5.273523035989478,-2.8936541224152257
0.35333333333333333,-2.0596029929537583,0.03142483882877725,-0.6550853857843912,1.391207075530179,3.2699587845417946,-1.4188744437039482
0.36,-2.037324751540578,0.1115921057382994,-0.3286670364045565,0.668249239654181,1.7409006204485504,-0.6730007330883735
0.36666666666666664,-2.0157197590422706,0.1678127196313641,-0.18459125200504795,0.35543999815979443,1.009601714637348,-0.44639616735887633
0.37333333333333335,-1.9898026933687307,0.22346682523655426,-0.07366436443228645,0.14017421685969383,0.44854659435149935,-0.2080679287365065
0.38,-1.9645235854083651,0.275690612088602,-0.010732969204119775,0.02358760119447903,0.06256008585435502,-0.015769284355130794
0.38666666666666666,-1.9401440897723377,0.32804874455043564,0.023759302087219124,-0.03909170176032027,-0.2277924781683378,0.13783573537224436
0.3933333333333333,-1.9169556220754025,0.3823098261070287,0.03752796083443902,-0.06395325181713422,-0.46447056194580455,0.26676411419067897
0.4,-1.895693424371553,0.43808746415421546,0.032014876841356364,-0.0544445474142999,-0.6797881617549996,0.3859204806221653
0.4066666666666667,-1.8760492797277635,0.49645470558724114,0.010798381898376473,-0.01748617201765456,-0.8255146086393407,0.4681615149441378
0.41333333333333333,-1.8548670666955,0.5685737112140206,-0.017862182598703234,0.032480858200686545,-0.9509865797443342,0.5395441790847877
0.42,-1.8385499634054014,0.6273965915533248,-0.05472341065089758,0.09664047494446334,-1.1236121302018385,0.6386516797833072
0.4266666666666667,-1.823148590524637,0.6898782210048329,-0.10109820068591506,0.16659074310297817,-1.3048421405974633,0.7537120985648526
0.43333333333333335,-1.8080920972857608,0.7592003182125979,-0.1518939460276476,0.24164841969099066,-1.50172808505389,0.8814145401058561
0.44,-1.7935802317730356,0.8397551594198491,-0.19117072934525922,0.32467738430404347,-1.7623700677925098,1.0219827889219566
0.44666666666666666,-1.7798011726857124,0.9336472275413361,-0.23363239790169862,0.4030934210780137,-1.994327768563469,1.1529628736193256
0.4533333333333333,-1.7665682709095634,1.0376901329381159,-0.27667270584764814,0.478734224170192,-2.2109143975563392,1.2776961622822216
0.46,-1.7545714812193893,1.165158584720609,-0.3171774559342074,0.5495135800678053,-2.4055799472311374,1.390217375265892
0.4666666666666667,-1.743766399258141,1.3160075581372674,-0.35480508391336396,0.6151820013965961,-2.5774292899016356,1.489587317098907
0.47333333333333333,-1.7344770106938867,1.4965934388500886,-0.38877339604293176,0.6743499951537577,-2.7202594582717037,1.5722305948671556
0.48,-1.7251684692312514,1.678665157277114,-0.42142015502272206,0.7312106816246072,-2.8638839456589285,1.6553520368997454
0.4866666666666667,-1.7157765490910817,1.8672052013422105,-0.4483137714896698,0.7780269233137164,-3.0109663571615273,1.7405550805370593
0.49333333333333335,-1.7063846289509121,2.0557452454073055,-0.47520738795661727,0.8248431650028252,-3.1580487686641243,1.8257581241743723
0.5,-1.69204735384134,2.1602772986432326,-0.5088241395710171,0.8832566865093889,-3.37027019059662,1.948900258703902
0.5066666666666667,-1.6776931545674172,2.2454301488089596,-0.5410195278080338,0.9391105634186729,-3.5630005768646185,2.0609102433720605
0.5133333333333333,-1.6635382779163121,2.315349610928679,-0.5715988843383936,0.9920694522973512,-3.7323329551576263,2.159531666207004
0.52,-1.6497169517067345,2.36886233508517,-0.6014872640537521,1.0436619282230315,-3.8396402709287014,2.2228359009141347
0.5266666666666666,-1.6358361988239611,2.41753341352078,-0.6345554209455563,1.1007018506536694,-3.9050653152730987,2.262415301827946
0.5333333333333333,-1.6218892862146506,2.4612405495219982,-0.671162726358206,1.1637924304454013,-3.9292039339263805,2.278590076140875
0.54,-1.6074488337499562,2.4808760577457387,-0.7341441537751466,1.2715946694601887,-3.8077245163823443,2.2116216754925313
0.5466666666666666,-1.5915252885592164,2.4583997345181614,-0.8376956576689841,1.4509854904529766,-3.6821903644941476,2.143194152259885
0.5533333333333333,-1.5739983668552107,2.397201257186268,-1.0081693243161214,1.7478052372656903,-3.6000243267587386,2.102768342723606
0.56,-1.5554546695697047,2.316127720087816,-1.2840454692068688,2.2290657205183093,-3.6286696613550364,2.1335155924780507
0.5666666666666667,-1.5370533252747527,2.21608712911624,-1.7091318706082765,2.9710850452356588,-3.748184561909959,2.2201051485930265
0.5733333333333334,-1.5216471292458977,2.118166683719181,-2.3201879281113955,4.027819108096666,-3.9231471600325105,2.2730525957839056
0.58,-1.5067734289452135,1.9911277146623367,-3.3140513668993363,5.778876395578069,-4.148325918998575,2.482729497496557
0.5866666666666667,-1.4923288888073787,1.8300481327154017,-4.879219009993025,8.524919811265487,-4.509724848008091,2.7739754945809736
0.5933333333333334,-1.4784129211538715,1.616717568622489,-7.404656746897661,12.921632487771783,-5.1324039417212655,3.121988390662997
0.6,-1.465418218246016,1.2403664328146473,-13.15550826755659,22.874476730707666,-5.834070364258584,3.458034369562874
0.6066666666666667,-1.453032729341625,0.7410493184677167,-16.816588965387602,29.19848749852364,-5.759064589286656,3.344217879972896
0.6133333333333333,-1.4425633892674001,-0.17191626538129723,-6.417758613841139,11.160252650085575,-1.7715198092839364,1.0318616029932985
0.62,-1.4322624203757337,-0.8985461667526673,3.502759386155625,-6.043400872774139,1.3404087539190062,-0.7714554503208865
0.6266666666666667,-1.4227860300708735,-0.7126184000355764,11.080797414821115,-19.15978791949047,0.16410716002839254,-0.08181119457715469
0.6333333333333333,-1.4133096397660136,-0.5266906333184884,18.658835443486478,-32.27617496620658,-1.0121944338622015,0.6078330611665655
0.64,-1.4041059072653426,0.8890789263516033,27.251429099266517,-47.07846690801785,-2.8632042245169416,1.6494330541941333
0.6466666666666666,-1.3949133384082855,2.355202868939257,35.88556250660767,-61.949786184187396,-4.741839125240417,2.705443448678832
0.6533333333333333,-1.3823299326158396,4.432579988149064,24.15021075248404,-41.70864460739395,-2.0298098157202795,1.1491149267031238
0.66,-1.3677828425956338,5.678810534732601,5.042719840339354,-8.753009216945257,0.9070249663492753,-0.5206364220734679
0.6666666666666666,-1.3517036733130283,2.5929757052909275,-6.065579498766262,10.439330478230657,-3.5451637135183,2.070766778887079
0.6733333333333333,-1.3348025702075448,1.5766595069539293,-2.973773924291785,5.119669677464981,-1.9122107428385733,1.1162819545263285
0.68,-1.3173529994546302,1.0687617204664748,-0.7078800802880074,1.212028113817231,-0.14134266233798543,0.0870470064818697
0.6866666666666666,-1.2994370409208198,0.759322535999575,0.13019799908579313,-0.15280545244808452,1.0102656523015399,-0.8288807039839461
0.6933333333333334,-1.281145878053628,0.5268671825302157,0.6095650239513102,-0.909876886025208,1.8514675157848175,-1.5314080265486578
0.7,-1.2613540882991086,0.3356357227887966,0.9892617562606689,-1.6781155005482977,2.747599361710897,-1.7357679812781897
0.7066666666666667,-1.2361097406254506,0.19172287776367158,1.6610321610066021,-2.8633804966007705,3.203374238159902,-1.9389606445065306
0.7133333333333334,-1.210366882882218,0.04742172358455721,2.869695747017231,-4.956677186334738,3.4768079156867633,-2.071420441092577
0.72,-1.1857861451489,-0.15387526881669358,5.255743950438491,-9.096273235578622,3.6350821632178403,-2.1430178773206467
0.7266666666666667,-1.162670359109446,-0.5166967122403684,10.402159542742243,-18.015404294089016,3.476644838255813,-2.0386983925958204
0.7333333333333333,-1.141715964079967,-1.4391791797002798,11.992578274377783,-20.771015172699627,0.5469821911682491,-0.348393896163921
0.74,-1.122764065891474,-1.8859057200699758,1.255646145195806,-2.172438091609461,-1.847896462135091,1.0367511393947515
0.7466666666666667,-1.1024563393338491,-0.781739016287992,-20.044848809875845,34.72180462851797,-1.1864065004147073,0.6606011009212162
0.7533333333333333,-1.0812172429380782,0.1641956485615198,-14.037674391196925,24.31609754634189,-2.257986564815814,1.2744562461185827
0.76,-1.0590801124658065,0.4832942739419911,-5.940132391910696,10.290842145261308,-3.3962179221690465,1.9307951411907962
0.7666666666666667,-1.0363788890203756,0.6069623540165223,-2.752672979284181,4.77097225718785,-3.8480516016647215,2.1925843437556227
0.7733333333333333,-1.0134160553984275,0.6808481275876123,-1.5396569455011624,2.671584421365807,-3.924711108266497,2.2385014440021203
0.78,-0.9903203577035093,0.73591376560906,-0.943170103797202,1.6405454970824285,-3.8373183096302697,2.1902758424049567
0.7866666666666666,-0.9672985020927732,0.7800619302189624,-0.6147342594772891,1.074074536652479,-3.6573572508641887,2.089006260089956
0.7933333333333333,-0.9444481224919522,0.8164040790733831,-0.4194110983981802,0.7382357218926796,-3.418086658777528,1.9537875265660505
0.8,-0.9219222986833275,0.8455591334807435,-0.2963274542675321,0.527421682825042,-3.138460180348528,1.7954825120856872
0.8066666666666666,-0.8999167854570465,0.8668109717546306,-0.2148872537757679,0.3885115850289129,-2.8312531290579788,1.6213084972147944
0.8133333333333334,-0.87874730880936,0.8780013700986606,-0.1584131510602321,0.29253631634281,-2.507919683953176,1.4377154813705566
0.82,-0.8593827382401689,0.8704867808639685,-0.11762901302805014,0.22334687221629212,-2.1957236923153762,1.2602387720247747
0.8266666666666667,-0.840706261604358,0.8539689913986316,-0.08748083229646274,0.1723082353162917,-1.9203150288063255,1.1038050941737367
0.8333333333333334,-0.820517902339987,0.8465302479560202,-0.06944112077725925,0.14206528018423373,-1.6923000517821547,0.9747805822280063
0.84,-0.7988789258370419,0.8477068395313526,-0.06570874304740908,0.13620708066872242,-1.4934301427702268,0.862578323620771
0.8466666666666667,-0.7762906514689392,0.8538749898134294,-0.072937515828921,0.1480391594362733,-1.3214608048913326,0.7656631777512252
0.8533333333333334,-0.7530354449024065,0.8636259860797251,-0.08775555192617474,0.17847586017901976,-1.1684715816288718,0.6809189908248373
0.86,-0.729189072488583,0.8766637314616337,-0.10731907609655497,0.21954510500803862,-1.0345372717101111,0.6076312904079441
0.8666666666666667,-0.7048162261885077,0.8929634294617683,-0.12922256524586181,0.26197699721615575,-0.9216950866717126,0.5459990963891228
0.8733333333333333,-0.680012306368699,0.9131425086979859,-0.15057145117651172,0.30802714307527507,-0.8227644367303675,0.4939176816592755
0.88,-0.6548342836003609,0.9372163896948503,-0.17357007316653528,0.3526410590428475,-0.7385060357627529,0.4490014853776582
0.8866666666666667,-0.6293718232650974,0.9655863804801297,-0.22328626517556718,0.3772154330137206,-0.6803824585852676,0.396691900856577
0.8933333333333333,-0.6037305178770115,0.9985762209981027,-0.24263898104910012,0.40861191271896213,-0.6182113990957662,0.36174085942355716
0.9,-0.5780146929373773,1.0374832586365434,-0.2553585585153218,0.42847818449047775,-0.563974641942613,0.331252287624601
0.9066666666666666,-0.5524639969309849,1.0829413203235672,-0.2572960268559276,0.42962340127356713,-0.5177245807924848,0.30527468618835735
0.9133333333333333,-0.5272885417310678,1.1367911325640574,-0.24390131396864417,0.40415141780350783,-0.4795174083256324,0.28387567665130664
0.92,-0.5029049194009299,1.1988415518832658,-0.21219136937209607,0.3468861974475968,-0.45033587292905175,0.267657128101134
0.9266666666666666,-0.4800700240242237,1.2680297540200813,-0.1610398101724927,0.2558829217508135,-0.43386140464196554,0.25875762484431813
0.9333333333333333,-0.46110140580206416,1.3314911286566269,-0.10317864650140413,0.15340798750931345,-0.4384973404368711,0.261993639547951
0.94,-0.44536143404116596,1.382949062184489,-0.05900373411575594,0.07478572783228996,-0.4482285592321142,0.26813097625797977
0.9466666666666667,-0.43170214930779177,1.4228211676417224,-0.03938389637571886,0.038747481091210366,-0.4477817243951133,0.2683799151695581
0.9533333333333334,-0.4013381015261204,1.4324398307231452,-0.03619825999288376,0.026964942719001888,-0.43987505484297523,0.2654169298178312
0.96,-0.3466377512523145,1.2436883460018513,-0.05466458893948331,0.03882475375691115,-0.4151361791368328,0.25253328738969233
0.9666666666666667,-0.2925253789107403,1.037488174740004,-0.0008326354844147557,0.0014412052195723318,-0.36339084831364954,0.20980260300236664
0.9733333333333334,-0.24057490915665686,0.8160196247722807,0.03107208258609415,-0.053814273575825265,-0.32314130372636685,0.18656299757411707
0.98,-0.19429010295056875,0.5919813706248918,0.06882293309546347,-0.11919541888869968,-0.25919651467216087,0.1496430192230175
0.9866666666666667,-0.158088276116292,0.40994515863053005,0.07706365907905123,-0.13346093171118892,-0.17865206715801688,0.10314097868628694
