# n,energy,berry,bcd_x,bcd_y,qmd_x,qmd_y
0.00000016666666666666665,-3.17612006963595,-0.000000022341682344763685,0,0,0,0
0.006688963210702341,-3.128380063653971,-0.0009021481421759787,0.0000000000000000009660815159742074,-0.000000000000000001960702404319491,0.00000000000000000014132873934542785,0.0000000000000000002077431419076186
0.013377926421404682,-3.0814729468138005,-0.0017925113810701293,0.0000000000000000016085601688139996,0.00000000000000000040530371753803904,0.00000000000000000021207294627735757,0.00000000000000000022410159144467916
0.020066889632107024,-3.0353773106929403,-0.0026395122953070337,0.000000000000000001770197602170652,0.000000000000000003818020302607339,-0.0000000000000000021408883160424503,0.0000000000000000014044586859818878
0.026755852842809364,-2.9901178681039524,-0.0034120919876367787,0.000000000000000005116269004388648,0.0000000000000000029791657236539398,0.0000000000000000007688818002917191,0.0000000000000000010129359781165145
0.033444816053511704,-2.9457238253682085,-0.004077193662280117,0.000000000000000003860524455154336,0.000000000000000001853830699270563,0.000000000000000006305438266245507,-0.0000000000000000016942741758466849
0.04013377926421405,-2.9021317567700815,-0.004607961114747052,0.000000000000000013080187521361128,-0.000000000000000005386196728077795,0.000000000000000015729869325739942,0.0000000000000000052173208390034915
0.046822742474916385,-2.8593171032549733,-0.004979794832643919,-0.000011071113132113172,0.000008838100694987783,0.00002851832152843547,-0.000029962266437800732
0.05351170568561873,-2.8301721150688604,-0.004827872815278269,-0.000012631357439045059,0.000021730502664500542,0.00009179697010071279,-0.00007308047439630417
0.06020066889632107,-2.80791460581523,-0.004414561312962158,0.000012819364203214281,0.000017869656910209102,0.00010420343307086806,-0.00005719667397397102
0.06688963210702341,-2.7859263357672677,-0.003942773046026783,0.000035289467358086714,0.000017875927263948104,0.00012485847652494054,-0.000052231707557809776
0.07357859531772576,-2.7641350182697106,-0.0034076272208418074,0.00006052144536413369,0.000019251828547514857,0.00014898055660494893,-0.00004965124421917966
0.0802675585284281,-2.7425220862476776,-0.0028144439446985184,0.0000905902117570417,0.000021502270622838543,0.00017508137725354887,-0.00004758333927760742
0.08695652173913043,-2.721137494770672,-0.0021637081392646778,0.00012695190647851742,0.000024517598092158565,0.00020110238760330334,-0.00004509245483708803
0.09364548494983277,-2.699971570586389,-0.0014643599865926961,0.00017134183100180026,0.000028274527564877876,0.00022378504156116683,-0.000041613947030361456
0.10033444816053512,-2.6789945977618523,-0.0007291175222668215,0.0002254197928347262,0.00003282610272474821,0.0002375667409388485,-0.000036825564041691
0.10702341137123746,-2.6582493223235324,0.000033686744976464173,0.000290851644925269,0.00003826084513847583,0.00023390076031375533,-0.00003088492152613226
0.11371237458193979,-2.6376764933314876,0.0008099494099963672,0.00036984523822757845,0.000044715864911018085,0.00019922563382077468,-0.000024632335399526695
0.12040133779264214,-2.6173627523770184,0.0015581795190497787,0.0004641794675576144,0.0000523632126989711,0.0001135459011356849,-0.000020192426182732675
0.12709030100334448,-2.5972444901476472,0.0022401607538211606,0.0005768452307255652,0.00006152705643078018,-0.000056744127751765354,-0.00002209035204138897
0.13377926421404682,-2.577346370486803,0.0027936612515836773,0.0007097128659054202,0.00007251660687700143,-0.00035883396767296126,-0.00003864835553117145
0.14046822742474915,-2.5576718284260127,0.003140312123666202,0.0008642698505175355,0.00008579357674236618,-0.0008605927231669303,-0.00008401522867993689
0.14715719063545152,-2.5382590710896116,0.003138389148161825,0.00104088604144373,0.00010189357958121296,-0.0016568852861693758,-0.000181110999979013
0.15384615384615385,-2.5190767276617634,0.0025692212910703224,0.0012550319473573698,0.00011754424533989896,-0.0028567016725313584,-0.0004957816424083768
0.1605351170568562,-2.5001487456063916,0.001121526158783569,0.0014635605032223575,0.0001538957498235621,-0.0046850778197343335,-0.0008361462026676246
0.16722408026755853,-2.4815062716333514,-0.0017055380609221453,0.001678614431656405,0.0001991758142101818,-0.007319764660139716,-0.0013611871215971176
0.17391304347826086,-2.4631778038660452,-0.006804986842251498,0.0018978714265798682,0.00024975168332166324,-0.010978582818500626,-0.0022059469413881314
0.1806020066889632,-2.4452205034539105,-0.01570405242956016,0.002104455357798729,0.0003084264218480557,-0.01588291140559629,-0.0034579223085594384
0.18729096989966554,-2.427742795322874,-0.031050002785408978,0.002282115481953912,0.0003755046751020195,-0.02217259360548191,-0.005204171654779759
0.1939799331103679,-2.410903327625227,-0.056804743418134025,0.002415058652133075,0.0004501422053694384,-0.029887719397811603,-0.007508927541264208
0.20066889632107024,-2.3957991545356463,-0.11488022490589919,0.0024656657616758245,0.0005273697698933815,-0.03884591988962683,-0.010443409447438243
0.20735785953177258,-2.379102395823939,-0.16045560688431104,0.0024521322811547406,0.0006180162213327439,-0.050257369185287094,-0.014433794247242924
0.2140468227424749,-2.3605903288300687,-0.1915934935839854,0.002334494166487287,0.0007216155250547366,-0.06469619706526333,-0.01986929883544991
0.22073578595317725,-2.340656585314281,-0.21219587695521167,0.002079371127783072,0.0008281087447004717,-0.08170660058722821,-0.02683632649466092
0.22742474916387959,-2.319576461610367,-0.2252583835765846,0.0016849235950789918,0.0009213458215118198,-0.09998079877289555,-0.03507183983460552
0.23411371237458195,-2.2975116030994767,-0.23213916713578936,0.001188632954226818,0.0009833416375024415,-0.11764863739736435,-0.04396282042752697
0.2408026755852843,-2.277704297038138,-0.19574330089931416,0.0007276395312415145,0.0010016465732292517,-0.13110842628146002,-0.05159959436790051
0.24749163879598662,-2.2608208596724846,-0.12243845309420269,0.0020912765707527376,-0.00004845746177621754,-0.14881831024813744,-0.05836982002715036
0.25418060200668896,-2.2445305104159847,-0.054376627532918546,0.007256246022062343,-0.0033803270765410897,-0.18310209554723175,-0.06626283946123235
0.2608695652173913,-2.22858355972962,0.00476652516324419,0.0025679888812319782,-0.0012614554631649802,-0.1912518639371229,-0.07538020801228223
0.26755852842809363,-2.21292284905865,0.0598901653146294,0.0008106061088554088,-0.0006095110218136635,-0.2075705424073574,-0.08512919428909249
0.27424749163879597,-2.1975374197041706,0.11246970599379764,0.00022340881741315127,-0.0004902499336252274,-0.22641590831776212,-0.09516685040539657
0.2809364548494983,-2.1824207098032637,0.16342776009828439,-0.0002098800020127097,-0.00036600286798721323,-0.24453624145039574,-0.10528800492458096
0.28762541806020064,-2.1677211627789994,0.2137541003006832,-0.000500265549261622,-0.0002218914047189417,-0.2613222820172697,-0.11533403731197066
0.29431438127090304,-2.153395666886469,0.2650821231696427,-0.0007146768646032636,-0.00007497029250124466,-0.27724397527650346,-0.12519952418759217
0.3010033444816054,-2.139400014400746,0.3176016285598527,-0.0008677843078451325,0.00007246320422279532,-0.29248981256063067,-0.13491381377656964
0.3076923076923077,-2.125968641213599,0.373246415074683,-0.0009360889525713037,0.00021384208978740495,-0.30688393732674446,-0.14439769438980019
0.31438127090301005,-2.1130834139367045,0.43344243342771693,-0.00095197540980903,0.00034604896917957725,-0.320825465604559,-0.1537095017556489
0.3210702341137124,-2.1005332158040457,0.49643037108170407,-0.0009357063200272635,0.0004726293496431877,-0.33448935193484197,-0.16291575206845751
0.3277591973244147,-2.0892911554317672,0.5730147626155753,-0.000855577978677777,0.000579127305592662,-0.3475792007472354,-0.17175209736670277
0.33444816053511706,-2.078656798169971,0.6574506757892675,-0.0007729113394133867,0.0006791124342554755,-0.3601806227256997,-0.18023123896770865
0.3411371237458194,-2.07203382484747,0.7944070898309795,-0.0006857430399622874,0.0007373792983588609,-0.3694578268234819,-0.18626879068311694
0.34782608695652173,-2.0654108515249696,0.9313635038726915,-0.0005985747405111883,0.0007956461624622462,-0.37873503092126404,-0.1923063423985252
0.35451505016722407,-2.0587878622101123,1.068319811739458,-0.0005114058312597023,0.0008539131392859522,-0.3880122961962544,-0.19834392523868044
0.3612040133779264,-2.0500325746970205,1.1911195664032768,-0.0003429308135832368,0.0009272093794665418,-0.4054464613870047,-0.20853144321082628
0.36789297658862874,-2.041277287183928,1.3139193210670954,-0.00017445579590677127,0.0010005056196471314,-0.422880626577755,-0.21871896118297213
0.3745819397993311,-2.030865677481572,1.425438358656691,0.00008559127614090006,0.001079237338868983,-0.4567390500699307,-0.23395657190022226
0.38127090301003347,-2.0195090199771033,1.5305209571607377,0.0003978866180477403,0.0011610703795334066,-0.49996866312274374,-0.2520756141892752
0.3879598662207358,-2.006685129243899,1.6276008024932331,0.0011575484675141398,0.0010471692257403055,-0.6903049510759011,-0.2228821862829874
0.39464882943143814,-1.9931766898266208,1.718965655398616,0.0022769292754691237,0.000711614873951642,-0.3811512599799992,-0.49554342078737135
0.4013377926421405,-1.9785699651724,1.7981399486247023,0.004203715493140111,-0.00017831863563344888,1.5957871429998796,-1.746499529130432
0.4080267558528428,-1.9637405074397387,1.8546622194575355,0.0018803960105047415,0.0005674173243600102,0.646917147184517,-0.8824927852330606
0.41471571906354515,-1.9484367779809029,1.9182773366083143,-0.0003144474077521119,0.000544737119049971,-0.18371268683559522,-0.10740879871404621
0.4214046822742475,-1.9323380401872643,1.9996424006632756,-0.0011436159940673672,-0.0008403961400294735,-0.07092704456746651,-0.03791937668705735
0.4280936454849498,-1.9146371084815528,2.096430393549808,-0.001763726720964844,-0.001650388976548893,-0.051511396786274026,-0.029016246326404233
0.43478260869565216,-1.8980939932300964,2.1553589906012594,-0.0023286622228615144,-0.002120970740611543,-0.04915106124777673,-0.030580930330625547
0.4414715719063545,-1.8827836612836908,2.192366710457477,-0.002890036332159545,-0.0024235787680839393,-0.05001157568207138,-0.033940905216537455
0.44816053511705684,-1.8678561180591922,2.2235816705105873,-0.005096602030179389,-0.001714289123182127,-0.04747474722468606,-0.031389453026202205
0.45484949832775917,-1.8526861081937942,2.260715748990324,-0.010958288201535847,0.0011002771879391696,-0.035061080958348756,-0.014445264097599612
0.46153846153846156,-1.8371844084139628,2.303898977682951,-0.008480680136417644,-0.0009038536229573073,-0.03746118510579826,-0.02246359867988077
0.4682274247491639,-1.821496680463925,2.3508288842865612,-0.007596071218065063,-0.0018251438440822344,-0.03774644860530813,-0.02681416463858723
0.47491638795986624,-1.8056378582439019,2.401288514214975,-0.008118849559308064,-0.001781644931037433,-0.03674656152244473,-0.028346283158542113
0.4816053511705686,-1.7896258862530074,2.454960973286924,-0.008888493007595356,-0.001481798372100161,-0.03710765435063648,-0.030780983477093668
0.4882943143812709,-1.7734022799926676,2.511737020022746,-0.009961198692556475,-0.0009498885937519216,-0.040901510408087226,-0.03521682727981819
0.49498327759197325,-1.7570547994788688,2.571017279619367,-0.011307460633568979,-0.00050964016520119,-0.049231899254583884,-0.044207929225544396
0.5016722408026756,-1.740548257270911,2.632627629488183,-0.012946878009507144,0.00028066609197130573,-0.06390505003532654,-0.05781164917963259
0.5083612040133779,-1.724001073557819,2.6962740370400566,-0.014753237090789954,0.0017494842682340248,-0.08101875681606475,-0.0726989929824332
0.5150501672240803,-1.7077460280464023,2.76141572684495,-0.016391712044962918,0.0040655582415716094,-0.08869743737229614,-0.08076598707118478
0.5217391304347826,-1.6918790321223571,2.828617139158788,-0.018238378188686087,0.0069455359439881655,-0.08887442480640427,-0.08371871657523543
0.5284280936454849,-1.6763706911047398,2.896995102166217,-0.020464739048840847,0.01023513286613912,-0.08544576648915474,-0.08429158943003491
0.5351170568561873,-1.6612027286647362,2.9657518207205995,-0.023426997093107013,0.014118276119553672,-0.0793200490192018,-0.08335861101194622
0.5418060200668896,-1.6464009977405119,3.034038370662493,-0.027639073306265388,0.018903024883266416,-0.07099322996848859,-0.08160166281566372
0.5484949832775919,-1.6322697731185387,3.1008388478545985,-0.04619203306246137,0.03244599524495494,-0.06122024106993496,-0.08945501956725209
0.5551839464882943,-1.6186009347313741,3.1641556983044894,-0.04184012082073683,0.032527896022382465,-0.0501032432172192,-0.07871974439507151
0.5618729096989966,-1.6054472011249343,3.2230844776642673,-0.0052062650422968065,0.013590901421294453,-0.03741747123963203,-0.04207434151695725
0.568561872909699,-1.5935450331456655,3.2633100367041705,-0.0002523282428774258,0.01171176483021403,-0.03433387271559096,-0.03724053496396497
0.5752508361204013,-1.5821980285869133,3.2907385013892796,-0.0005396077440979448,0.012622159307471102,-0.03274183114573819,-0.03755275514549519
0.5819397993311036,-1.5744264757199942,3.218482674665067,-0.0007798564331419016,0.013172523062284273,-0.030138144189824502,-0.03661564179125895
0.5886287625418061,-1.5666549228530753,3.146226847940854,-0.0010201051221858622,0.013722886817097454,-0.027534457233910768,-0.03567852843702269
0.5953177257525084,-1.5576061020608987,3.1260303713750024,-0.001322495576583737,0.01428372027880338,-0.022145036706363756,-0.03295689169934375
0.6020066889632107,-1.5468379090314925,3.175912693141509,-0.0017085370990223545,0.014858647356271012,-0.013005648870728541,-0.027833049518699398
0.6086956521739131,-1.535189789232937,3.277606159376073,-0.002181332918857143,0.015272104757165485,0.01091869732021366,-0.013105860931435774
0.6153846153846154,-1.5226781652041033,3.4301437912756767,-0.0027392638947332055,0.015527106075495949,0.049352062365804084,0.011045441727230938
0.6220735785953178,-1.508770321439641,3.3811451395876944,-0.0036228683397640346,0.015225812225419584,0.017674244222750636,0.040125694398742216
0.6287625418060201,-1.4933617874631502,3.2263267904357167,-0.005208395113957592,0.01501836146217735,1.1867943223833612,-0.7603985961892284
0.6354515050167224,-1.4757784479421197,2.9627798883005014,-0.006830448482543554,0.014898906049231228,3.0947678522998565,-1.987144918889238
0.6421404682274248,-1.4573599448349865,2.7063601472901198,-0.004622594776685768,0.013932610969904474,0.48872542847580297,0.16213369789180407
0.6488294314381271,-1.4386453771915604,2.434213145260732,-0.003837417781481509,0.01310856457566957,0.37279819356615274,0.15982295820380266
0.6555183946488294,-1.4198533127058652,2.1366054807820354,-0.0029028354661269525,0.012173076524887827,0.3330715576874673,0.1477219641491966
0.6622073578595318,-1.4011936752162646,1.8031817456119916,-0.0016924029304069277,0.011067319781243206,0.3111031193713468,0.13820294196633393
0.6688963210702341,-1.3829991770712886,1.4080909799026438,-0.00020753972272829916,0.009822159995455127,0.2961552235335322,0.13049783687958386
0.6755852842809364,-1.3659477104067193,0.8937049228119196,0.0014808096847862397,0.00852727982340555,0.28453403526758003,0.12390906680058555
0.6822742474916388,-1.348971533351636,0.3989497848829269,0.0034659811262055928,0.007136383644900329,0.27373208817933375,0.11746741855468816
0.6889632107023411,-1.33076215042944,0.07860425342681643,0.005986161769172538,0.005548777600397518,0.2619586537316517,0.11029466785228663
0.6956521739130435,-1.3117276935089761,-0.16583983594246804,0.009142335070152559,0.00381043918624903,0.24861995560395944,0.10218812594394744
0.7023411371237458,-1.2920788612024432,-0.3826460909569067,0.013155992316847841,0.0019272769613079667,0.23326609840023882,0.09297407416504214
0.7090301003344481,-1.2718677841098698,-0.5940646505855952,0.0186984143392114,-0.000314795027394124,0.215827052264795,0.0823827044674236
0.7157190635451505,-1.251179267325104,-0.8153741424755167,0.027389156004197338,-0.003480592218279236,0.19633077372928992,0.069729868102672
0.7224080267558528,-1.2300177792389153,-1.0634939762535256,0.007674585351967563,0.012209156146766122,0.14068335409142468,0.06168777767195076
0.7290969899665551,-1.2084514544267297,-1.3559933603664862,0.00952028738094976,0.011421549895084915,0.1340573823651751,0.05757782682396906
0.7357859531772575,-1.1864079706655564,-1.7215213233437099,0.011437963335521297,0.0105957870567871,0.12567448808070397,0.05271921191746089
0.7424749163879598,-1.1624219666203415,-2.0435100029020843,0.013466886147120886,0.009666934590378796,0.11460540492357557,0.04676884808545098
0.7491638795986622,-1.1329452250316587,-1.894035055355062,0.0157114485307691,0.008491281272792351,0.09866648238782594,0.03887060373468634
0.7558528428093646,-1.1042767565485732,-1.7008751596809226,0.01741434006098743,0.007340830837159246,0.081564321558895,0.03110799965127699
0.7625418060200669,-1.076968946593523,-1.4790240381795903,0.0183987196351838,0.006285203605413093,0.0650697513390465,0.024265896318628268
0.7692307692307693,-1.0510893767075893,-1.2196401047927745,0.018757356105896593,0.005354726471724758,0.0503554571549842,0.01862954584019894
0.7759197324414716,-1.0272381678736644,-0.8926309794203637,0.018595339426413626,0.004581929077870907,0.03826818731400854,0.014368417238605586
0.782608695652174,-1.0066607844853575,-0.4263117815173389,0.018109576226747012,0.003992849863787311,0.02935181293663872,0.011486234358904737
0.7892976588628763,-0.9845402162663313,-0.14903449455727924,0.017325041210802607,0.0034362038460982293,0.021331766143991716,0.009112364280719062
0.7959866220735786,-0.9609502898408828,-0.008057213791706094,0.016271473627115045,0.0029260145213981853,0.014569266361958088,0.007327647207869718
0.802675585284281,-0.9365089168429036,0.07331163468105709,0.015052089442261983,0.002477465648032229,0.00935223106679594,0.006150289342466288
0.8093645484949833,-0.9114401941733656,0.1264923768596705,0.013776788576845457,0.002077599655910408,0.005441606771026258,0.0054298310758473635
0.8160535117056856,-0.8858699229170222,0.16301853822881096,0.012527497043786842,0.0017127741651960886,0.002621424132383438,0.005054416045326109
0.822742474916388,-0.8598220366831739,0.1893360686451828,0.011365939744113812,0.0013653394561209573,0.0006512008638166721,0.004926586398204925
0.8294314381270903,-0.8332690484112073,0.20802115873870264,0.010366418417031543,0.0010139394771043065,-0.0006239835578725968,0.004993743779733457
0.8361204013377926,-0.8063472454753541,0.22274504759465463,0.009557874648386458,0.0006354019933627125,-0.001474064129650563,0.005190960957955395
0.842809364548495,-0.7790620663015491,0.23507004785451588,0.008964492011253282,0.0002034994906850985,-0.002059046988062161,0.005501242288330639
0.8494983277591973,-0.7513647760367294,0.2455264270944147,0.008663902527945569,-0.0003299383243084549,-0.002477020297987624,0.005963272480080651
0.8561872909698997,-0.7233308484885576,0.2551812931245446,0.008748258525646504,-0.001036614488294604,-0.0028287765170504297,0.006649998886385801
0.862876254180602,-0.6949745611300769,0.2645852898748115,0.009390630488656343,-0.002036817959862108,-0.0032046694323511825,0.007710338759786785
0.8695652173913043,-0.6662198110140013,0.2739419082503186,0.011630922765401371,-0.003933307695696348,-0.003804717139066175,0.009938932455375393
0.8762541806020067,-0.637168853119166,0.2842787340085155,0.022209862840247823,-0.01063506092671656,-0.005853188271725167,0.018325163545217578
0.882943143812709,-0.6078300308613864,0.29494615473843994,-0.0015772811371922853,0.002604304096810783,-0.0014927224150537422,0.0018469633628611002
0.8896321070234113,-0.5781772689948833,0.30733154879772534,-0.002184404693358885,0.0027338947285720245,-0.0015701186125521441,0.0019430834754059713
0.8963210702341137,-0.5483155940905488,0.32132728105573827,-0.0028057758604020247,0.0028784346712797766,-0.001681951269055303,0.0020800729450750565
