# n,energy,berry,bcd_x,bcd_y,qmd_x,qmd_y
0.00000022222222222222224,-3.1035345687995624,-0.0000000069869803015716,0,0,0,0
0.006666666666666667,-3.0556718355573196,-0.0002119581943599904,-0.0000000016298569351968513,0.0000000004821821195270204,-0.00000000016873582391655316,0.0000000013503773446714775
0.013333333333333334,-3.0084913777592472,-0.00041357328881187354,-0.0000000002911015698809855,0.0000000007882758142322038,-0.000000000727866057423336,0.000000002925415420048423
0.02,-2.962031496794632,-0.0005818210405398848,0.0000000029087044089625117,0.0000000005667626903737438,-0.000000001533071562483913,0.000000006338061095428207
0.02666666666666667,-2.916833694067288,-0.0006836647713388675,0.00000000883549427317495,-0.000000000010345738810281265,-0.0000000029348016119738537,0.000000012062684853153077
0.03333333333333333,-2.88699331452187,-0.0006294307822044886,0.000000013347059572504726,-0.0000000007569921194313177,-0.000000004349669057225655,0.00000001658954532934123
0.04,-2.863851601427701,-0.0005048846056542008,0.000000018692768360220543,-0.0000000010379864120267271,-0.000000005750920904429092,0.000000021370260474707412
0.04666666666666667,-2.8408857240831855,-0.0003487281051534232,0.000000022480760808248944,-0.0000000033533314435393696,-0.000000008378694058589658,0.000000024839312073133442
0.05333333333333334,-2.8180862499015693,-0.00015555247284878106,0.000000028627115032221986,-0.000000005011908582325695,-0.00000000918620832372046,0.000000031225257604285146
0.06,-2.7954711993875514,0.00007386096078508822,0.00000003884428013107635,-0.000000005968293371475394,-0.000000011036446193847148,0.000000039284660778506666
0.06666666666666667,-2.773030835487639,0.0003407456985228394,-0.000032018971436237445,-0.000004946648056005193,-0.00000388094186002466,-0.00004002653223370778
0.07333333333333333,-2.750748092812301,0.0006476258465960369,-0.00007663983812942702,-0.00000814564063752304,-0.000002212681527594278,-0.0001017066749547491
0.08,-2.7286455505640217,0.0009966749316049884,-0.00005020401878209719,0.000003877239341617926,0.000014965646199304705,-0.0000811218426252063
0.08666666666666667,-2.706696454720776,0.0013898858448847795,-0.000039163522559136286,0.000012684801982279393,0.000026041246746469353,-0.00007742904282318493
0.09333333333333334,-2.684890526504324,0.0018300760668132062,-0.000031401209403975544,0.000021688730526625947,0.0000354246337928657,-0.00007770294509980661
0.1,-2.6632642152917967,0.00231786497953863,-0.000024479823906424118,0.00003162804749302574,0.000043673607164586065,-0.00007926613548007872
0.10666666666666667,-2.6418370518343477,0.0028562590139692852,-0.000017428571091289144,0.00004285655955897325,0.00005059786242394916,-0.00008080275198235586
0.11333333333333333,-2.6205280165507445,0.00344770229025083,-0.000009601637680559461,0.00005578304659303332,0.00005546532787052179,-0.00008122042537248582
0.12,-2.5993782160351815,0.00409293792920671,-0.0000006036663188004832,0.00007067857409399041,0.000057034280117527755,-0.00007926691662702615
0.12666666666666668,-2.578436282801895,0.004793154503778226,0.000009944480767072515,0.00008787076642079072,0.00005334578040994517,-0.00007332604937690783
0.13333333333333333,-2.557645680580096,0.005548516523418427,0.0000950246265711987,0.00012846427642585484,-0.000010830641294818636,-0.00017052586542936162
0.14,-2.5370177156517766,0.006359746702778794,0.00008124056124836547,0.00014970677032682923,-0.00003499866875438362,-0.00011718419210002575
0.14666666666666667,-2.516554966279515,0.007216877568708662,0.0000866084978915287,0.0001789090625046085,-0.00008446819491036578,-0.00007297312642312424
0.15333333333333332,-2.496243925056226,0.008128919543030048,0.00009861275495505614,0.0002136733646041713,-0.00016289686143660856,-0.000015085381941634362
0.16,-2.476121675108847,0.009070727832530996,0.00011500826757296373,0.00025428470211689096,-0.0002819398293680828,0.00006761124706795602
0.16666666666666666,-2.4561531451180887,0.010039312144226225,0.00013551299627839077,0.00030112434431614265,-0.00045927485672360197,0.00018676639600762304
0.17333333333333334,-2.436364101126456,0.010994821994217724,0.00016007692195411458,0.00035490922873967394,-0.0007196401162847107,0.0003574370159215122
0.18,-2.4167196154912594,0.011906145395752632,0.00018887568503908288,0.0004168532405491507,-0.0011034218661739106,0.0006030919141177264
0.18666666666666668,-2.3973043773561784,0.012735863943621391,0.00022211924062200792,0.0004871340322050262,-0.0016589477970973465,0.0009494930380890476
0.19333333333333333,-2.37807773531667,0.013337860199312603,0.00025976173688827914,0.00056655959381908,-0.002458929807055241,0.0014346208757139848
0.2,-2.35900785264148,0.013552497933165193,0.0003021955654111359,0.0006556153775353464,-0.003605528682960304,0.0021096347757822644
0.20666666666666667,-2.3401615099166864,0.013072597054873961,0.00035015131181530544,0.0007538069076882793,-0.00523360866131448,0.0030374058874739524
0.21333333333333335,-2.321523684636662,0.011323334902077362,0.00040822995748085824,0.0008593399133356783,-0.007529466941650046,0.004296147867737657
0.22,-2.30318365662787,0.007014751961524342,0.0004947420401913823,0.000965748233041174,-0.01071763324222159,0.005942391156891984
0.22666666666666666,-2.2852004935221495,-0.002850701441307419,0.0006584991737621987,0.0010608353911407465,-0.015037905818590212,0.007820438556572124
0.23333333333333334,-2.2679854232264924,-0.031036146515933324,0.0005520442181698262,0.0012098482394853306,-0.018812202511071227,0.008725387679839778
0.24,-2.2514178096530597,-0.08135678991304779,0.00012327194825209552,0.0014265934098140222,-0.022871269094064308,0.009146719358398551
0.24666666666666667,-2.2338004763900274,-0.13396037163320493,0.00047717382532689657,0.001514591071668408,-0.037216114619263344,0.014841333193578818
0.25333333333333335,-2.2140687266376675,-0.16442839098540668,0.00038956100777430563,0.0015816336036568123,-0.05458580516038222,0.021671619662071692
0.26,-2.193131474117833,-0.18419326010912543,0.0003478109806532773,0.0016282581514875211,-0.07857997857767633,0.032690871194505124
0.26666666666666666,-2.1721398115994157,-0.17739861537124718,0.0005375390561212877,0.0013653648766567784,-0.11175118778101403,0.0492007817614745
0.2733333333333333,-2.1547585470956605,-0.10740522373431823,-0.0001199671266137759,0.0014563396177843164,-0.15212839838899522,0.06225071304173912
0.28,-2.1375875533791993,-0.05412942362670711,-0.0005609651771838705,0.0013094985516025224,-0.2013515487183471,0.08002717524844373
0.2866666666666667,-2.1206401501047387,-0.008470340573814662,-0.0009510444601321046,0.000999932648570648,-0.2574516642548682,0.10130984814140508
0.29333333333333333,-2.1039397324174893,0.03336083850036682,-0.001345070101629414,0.000567448519700175,-0.3203720984771133,0.12379955759423414
0.3,-2.0875424498370987,0.07463102678992868,0.00008929838093219163,0.0002815880160540822,-0.4006483769355686,0.15426418151981305
0.30666666666666664,-2.0715499634926817,0.11908122271920404,0.005071395364171962,0.0003952893453217365,-0.5093892800155867,0.20128055234543257
0.31333333333333335,-2.0567462149903135,0.18523002264965488,0.0026583022275465064,-0.00038236012131196584,-0.6097957585909559,0.23915572112864664
0.32,-2.0414506861570807,0.2547919443261111,0.0011986707444998478,-0.0012281503403568598,-0.7278634876974661,0.2777883959992336
0.32666666666666666,-2.025255127055789,0.31953192030903793,0.00014387721859694853,-0.00196033340815582,-0.8593456703271602,0.31869331771502646
0.3333333333333333,-2.007792029557202,0.3729205683066565,-0.0008852434363005836,-0.0023825343571919544,-1.001218901699711,0.3620591474394715
0.34,-1.9895569917105724,0.42109034470376216,-0.001672952733496636,-0.002474280673454227,-1.150084574278744,0.40273498205266756
0.3466666666666667,-1.9707426503053196,0.465063529766221,-0.0021883771507066664,-0.002282086990267629,-1.3064486252833019,0.4383271501204254
0.35333333333333333,-1.9527488211384045,0.48118863810597406,-0.001831493197742346,-0.0018359655348171352,-1.445927857585615,0.46770100952368077
0.36,-1.9372073143229975,0.4621958035940169,-0.0014953657983984218,-0.0010272732115180947,-1.5865029013484568,0.5028887016917336
0.36666666666666664,-1.9220717566815562,0.447302221955497,-0.0005857496606117554,0.00007223440556305809,-1.7593360275462215,0.5777721548292197
0.37333333333333335,-1.907116356423594,0.43959764685818276,0.002341906154288013,0.002331866297427037,-1.7540088227543622,1.3754945261277942
0.38,-1.8923827286693302,0.4374202234614105,0.010381667556182932,0.007703917471673284,-1.1105843746791968,4.38046086423741
0.38666666666666666,-1.8780585839535122,0.42713076298382724,0.00599948620918788,0.004633464510109693,-0.8768526169887917,1.6733301601007553
0.3933333333333333,-1.8642027926580513,0.4233521699791261,0.00031352506191088293,-0.0004907453224116064,-0.5971720269413249,-0.18109934534242317
0.4,-1.8508437496797336,0.4290670540285406,-0.004640262125792426,-0.006547158900054197,-0.18442235555231545,0.07945186402828563
0.4066666666666667,-1.8373853244293088,0.4605979199980107,-0.0013753008281710542,-0.008525955501597788,-0.08740246325815698,0.09242005173711275
0.41333333333333333,-1.8240190745117209,0.4984644561296133,0.0014791459123956446,-0.009902770959769127,-0.038593041477212424,0.08879925437271753
0.42,-1.8107816072502567,0.5422811961363666,0.003068898991217932,-0.010858635622621071,-0.02445875057208658,0.08559608947216059
0.4266666666666667,-1.7978391460934122,0.5951597106098084,0.004065750044933501,-0.01132067109825095,-0.021984080452217804,0.08435444115382573
0.43333333333333335,-1.7851042680162055,0.6529688520877877,0.004847490770152572,-0.011572808497293597,-0.0274177906125952,0.08329088415020985
0.44,-1.7727117051928827,0.7185031230593756,0.005331216879070579,-0.011517425261641104,-0.045809763617356614,0.08218364462655718
0.44666666666666666,-1.7607980360092634,0.7945307079677563,0.005459709908439887,-0.011570092853885829,-0.09396174499307866,0.0844789432957465
0.4533333333333333,-1.7490801296400895,0.8748477644807284,0.005442990260773678,-0.011666929615270976,-0.15427906437627692,0.08816513630486014
0.46,-1.738461035312104,0.9782560230498176,0.005956896470005687,-0.012461662783061772,-0.28833358745611026,0.09298497804767827
0.4666666666666667,-1.7281303477729946,1.0874866483720906,0.006413391580174315,-0.013142481469068587,-0.4178858006716801,0.09829444142137539
0.47333333333333333,-1.7210344062272636,1.2618486192450362,0.006084218479503177,-0.012331531826025637,-0.479747413328817,0.10923388422570196
0.48,-1.7139384646815325,1.436210590117982,0.00575504537883204,-0.011520582182982686,-0.541609025985954,0.12017332703002853
0.4866666666666667,-1.706136045575811,1.597139760994642,0.0052706754156998815,-0.010536157233541791,-0.6009483193101223,0.1289132749659896
0.49333333333333335,-1.6959415182406479,1.7125859424101888,0.004260814321778672,-0.008964350983490363,-0.6517471278752898,0.13020581045292332
0.5,-1.6853355963129368,1.8207676439383942,0.003084958160594197,-0.007445627228159378,-0.6996171744137362,0.13004413588463712
0.5066666666666667,-1.6734600777251942,1.9065305787426319,0.001396827927760144,-0.0060907203027624306,-0.7384488267814602,0.12539465262237476
0.5133333333333333,-1.6612322050018133,1.986002899320441,-0.0006167585281321478,-0.004917344810748766,-0.7721896757640797,0.11800765754750743
0.52,-1.6487068263335865,2.0601638160014266,-0.002905140002313067,-0.00389724318484142,-0.8016321665952788,0.10830927754491851
0.5266666666666666,-1.635923081093082,2.125785070881259,-0.0058795387058621735,-0.0032158426237612224,-0.8095279250006308,0.09591160236901232
0.5333333333333333,-1.6231084193567304,2.1860660018561524,-0.00917783122983924,-0.002928578533423846,-0.7611968086737184,0.0790446611704414
0.54,-1.6102734710434812,2.2376175201059745,-0.01298123169279142,-0.0033277928169386643,-0.6110575661500329,0.05422822014810734
0.5466666666666666,-1.59752805686574,2.2526860176466097,-0.027650087927190786,-0.012583315952482941,2.7047674769950394,6.423843026540379
0.5533333333333333,-1.5846757261197915,2.260105953311475,-0.04193768790413346,-0.021073054990234496,5.531488066558744,11.425776704835428
0.56,-1.5712331928236711,2.28094452762348,-0.040438703046402,-0.014677833511909018,2.0826528802681796,2.0679478977424406
0.5666666666666667,-1.5577744249472802,2.3049693404620957,-0.043446849186487016,-0.01089181071501749,0.9023862248354066,-0.6425141634143887
0.5733333333333334,-1.5443272931370517,2.330135575697549,-0.04885267321196645,-0.00838760799471801,0.8010522029132564,-0.29515536308962015
0.58,-1.5309688385850646,2.353653974563871,-0.055529749143677164,-0.006130772662121878,0.7512740240300531,-0.27362947107628444
0.5866666666666667,-1.5177515192607731,2.3758158237580074,-0.0621359045868753,-0.003547127148481723,0.7346694769567734,-0.27059224175610863
0.5933333333333334,-1.5046444615435546,2.396744262376915,-0.06879473483215547,-0.0007629970984556341,0.7392664087219295,-0.2776029133443
0.6,-1.491806525010282,2.4138933152328503,-0.07606083758755607,0.002267593280645722,0.7747259563033724,-0.2896660886035954
0.6066666666666667,-1.4792607494889052,2.4289051669948787,-0.0911157058266928,0.004802703380934951,0.8109332392569875,-0.30669920863792743
0.6133333333333333,-1.4669519303934155,2.4421836473897685,-0.11248763197551792,0.006935955494756195,0.8477469710319196,-0.3277631894058912
0.62,-1.4553954529542688,2.448361451479943,-0.08175691818666447,0.013884669063613912,0.8947507735741758,-0.32091298682641173
0.6266666666666667,-1.4441457599702487,2.449855273147848,-0.0512303762932521,0.020114210781004553,0.9384203049248512,-0.31356388202969265
0.6333333333333333,-1.4342248586243398,2.428563244836112,-0.0515458252722234,0.01948195093484797,0.9571879899051605,-0.3192542353490692
0.64,-1.4245728148567025,2.400621866471979,-0.05146385299030288,0.01883027150647624,0.9751212107904169,-0.3246648351152832
0.6466666666666666,-1.4170813494590353,2.319245349734968,-0.04818814599735984,0.01802253350777318,0.986348557562413,-0.32782729488198525
0.6533333333333333,-1.4095898840613679,2.2378688329979552,-0.04491243900441675,0.017214795509070114,0.9975759043344092,-0.3309897546486873
0.66,-1.3993557535228687,2.189485169419822,-0.0428947661639184,0.017124021074894056,1.0109835267581668,-0.3356254258016606
0.6666666666666666,-1.3852041007992382,2.1882272859000977,-0.04267402311571726,0.018057331071642656,1.0275053748700396,-0.34236537800709793
0.6733333333333333,-1.368721319644273,1.9091349373490636,-0.0364466494298192,0.018478328713170726,1.0315482233492514,-0.34927973998744233
0.68,-1.3518264560134996,1.5953881856332535,-0.028444304194860506,0.019418996068754822,1.0247292627854192,-0.34828803055669744
0.6866666666666666,-1.3347992883308106,1.2342015528465151,-0.019821025696631495,0.021071195158003927,1.0045671014015771,-0.34683750663743235
0.6933333333333334,-1.3181951049947627,0.7655859809839785,-0.010581541706008715,0.023776711814071896,0.9712846991384881,-0.3432427651931708
0.7,-1.302187868992317,0.19494609882269198,0.00003459189183268891,0.027470478866727103,0.9264514334612838,-0.3325865068280506
0.7066666666666667,-1.2854146267107085,-0.18534668430034734,0.014553607849918835,0.03081895628655528,0.8618256705499309,-0.31283900406995824
0.7133333333333334,-1.267689041452714,-0.45034233033610116,0.024172759755753587,0.03753193830377872,0.7766014849553817,-0.2889877165192374
0.72,-1.2493683775994024,-0.6896731148089467,0.03665068269487676,0.04592931928296652,0.6788086298545867,-0.26383133958853827
0.7266666666666667,-1.2304682932163231,-0.9418792669462117,0.021246630558688976,0.050127748957581375,0.5624813158336603,-0.21132538949619084
0.7333333333333333,-1.2110357374108152,-1.2405703580516323,0.01588487293309284,0.05130623765352026,0.4732064182583272,-0.1773625947189286
0.74,-1.1909861673496533,-1.6184652395964003,0.02214635910842848,0.05156628233760371,0.3983501726399319,-0.15548268921480174
0.7466666666666667,-1.1677641037613193,-1.6594676960250507,0.026209350696387548,0.04996463525116066,0.30707836928687515,-0.12194392199520453
0.7533333333333333,-1.1431929677224473,-1.4193584549011269,0.028495414449485293,0.04609117679689966,0.2165621161725797,-0.08821928445175618
0.76,-1.1199491343119372,-1.1150991484706085,0.026930036853364463,0.04153155326116743,0.14879112168099007,-0.06085298458142973
0.7666666666666667,-1.0986626773587989,-0.7003707753533015,0.02482056741187691,0.03685699026153222,0.10176107808018454,-0.04034806676851561
0.7733333333333333,-1.0788713915465102,-0.2389546011106238,0.025782426673938808,0.031351697620069174,0.07082058625233605,-0.028216532752418047
0.78,-1.0572266848712806,-0.07224540841695365,0.021628353560281633,0.026923769742490517,0.046604480917248794,-0.018274660306426244
0.7866666666666666,-1.0347185865642543,0.008540228367442441,0.017694061709551803,0.022947235793281357,0.029784435415631878,-0.009937727064202994
0.7933333333333333,-1.0116079360585468,0.05287830373882532,0.014585931814970459,0.019366134111564876,0.01869407790376718,-0.003911754789588292
0.8,-0.9879283805667803,0.07859102387392268,0.012027164785156684,0.01628671294565276,0.011651360582824134,0.0002257111776678073
0.8066666666666666,-0.9637215973612766,0.09419015391455153,0.00992481304664303,0.013717090868226612,0.007339640728667287,0.0029879122840909063
0.8133333333333334,-0.9390173694830345,0.10385967817673818,0.008247919021939484,0.011629930449307819,0.004845562673590912,0.0047871416860829135
0.82,-0.9137746132928136,0.10965331047332229,0.006984070973620961,0.009985869663689417,0.0035328259250397907,0.005946586836283982
0.8266666666666667,-0.8880368927007218,0.11339026305852705,0.006046079718665854,0.008662495116163758,0.0028401878531170138,0.0067821221375992755
0.8333333333333334,-0.8618405278620895,0.11592153578422215,0.005399336798452098,0.007602643732428228,0.002532205714677359,0.007443323364079559
0.84,-0.8351733189513169,0.11763104393940775,0.0050457542117002645,0.006772700645321406,0.0024822421756815097,0.008040488133435861
0.8466666666666667,-0.8079500510807044,0.1189951421113227,0.004966433333311725,0.006110883472300505,0.002592235441255707,0.008676896303475306
0.8533333333333334,-0.7802700665010218,0.12020914046167894,0.005149090967203127,0.005570591390333902,0.002817074003322662,0.00941844712215108
0.86,-0.7520385835823077,0.12170604926803787,0.005687088414523009,0.005145289235473551,0.003182264179348039,0.010376345050528755
0.8666666666666667,-0.7233076680337888,0.12343699603593516,0.006658334108418908,0.00481237487189165,0.00371831960129272,0.011649732608606998
0.8733333333333333,-0.6940748641004402,0.12556782242080725,0.00838437971540922,0.004626921791292269,0.004573631409723272,0.013493122576697417
0.88,-0.6643029377938772,0.12822923876072065,0.011833598779318288,0.00478340964472801,0.006178098916736029,0.016606167667981977
0.8866666666666667,-0.6340220131115469,0.13137022813885252,0.022539091582957475,0.006706864183010723,0.011016775868850389,0.02465515160924475
0.8933333333333333,-0.6031303271031714,0.1354355564936847,0.008684586482083603,0.003657532998512224,0.006493185119374439,0.0169790286521459
0.9,-0.5717143620584795,0.1405429500220939,-0.009775646029172382,-0.0009339043816294175,-0.0006083760794777775,0.006891181483548231
0.9066666666666666,-0.5397670572780193,0.14680633953989855,-0.011863887154657178,-0.0016738537358404765,-0.0008064569241644431,0.008364530063193829
0.9133333333333333,-0.5072228523149286,0.1544340756410023,-0.01567318195424324,-0.0028015828248787425,-0.0012281035845510128,0.01118950062506228
0.92,-0.4741202983830825,0.16339682710411746,-0.028065907172098527,-0.005722884683003776,-0.002657061970490006,0.020580953440124825
0.9266666666666666,-0.4404334737180136,0.17444501780136185,-0.023349891492142,-0.004462027178732677,-0.0027631292994396367,0.01735322999103102
0.9333333333333333,-0.4061799596538684,0.18764212156389126,-0.0000005607732980466986,0.0000001391647342496278,0.000000023603376874871433,0.0000006035106461724959
