# n,energy,berry,bcd_x,bcd_y,qmd_x,qmd_y
0.00000007407407407407407,-3.068777105537083,0.0000000010168645981092684,0,0,0,0
0.006666666666666667,-3.0208313244924216,0.00009839049112495715,0.00000000000000000010092840909021644,0.0000000000000000002995706716515576,-0.00000000000000000016929748391032938,0.000000000000000000007376393162135987
0.013333333333333334,-2.9735275526033593,0.00022320586007540096,0.00000000000000000022618512828084173,0.0000000000000000009236899118432017,-0.0000000000000000006815904768234861,-0.00000000000000000015868936194546622
0.02,-2.9323062462841225,0.0003618300179804855,0.0000000000000000010278078050400213,0.0000000000000000016403700134611848,0.0000000000000000007738261721895519,-0.0000000000000000008708098592072466
0.02666666666666667,-2.9076456282231695,0.00042862828611357594,-0.00000000000000000002235857392542398,0.000000000000000002822720835085268,0.00000000000000000006454206399927201,-0.00000000000000000022623872956840347
0.03333333333333333,-2.884269917255252,0.0005073512780706512,0.00000000000000000008643739651258483,0.0000000000000000005924744958882319,-0.000000000000000001964621028676093,-0.00000000000000000008119652752824333
0.04,-2.8610535641981234,0.0006049067288603495,0.0000000000000000007337284297277224,0.000000000000000003883035974598212,0.0000000000000000015923442557080555,0.0000000000000000005896770863191379
0.04666666666666667,-2.8380216591928966,0.00072239784489967,0.0000000000000000011943892781107046,-0.000000000000000001603624810214656,0.000000000000000004725596850222912,0.0000000000000000005042075312243077
0.05333333333333334,-2.815144524048507,0.0008609522101480387,0.000000000000000002970965945423275,0.000000000000000006085639976921893,0.0000000000000000003411776456767659,0.0000000000000000007940882388130338
0.06,-2.7924331069080366,0.0010226923603919834,0.0000000000000000009672135764053754,0.000000000000000006190775286461855,0.0000000000000000027515792559774423,0.000000000000000002853385289608447
0.06666666666666667,-2.769897346344623,0.0012084415027746142,0.00000000000000000008173689618378429,0.000000000000000003657927532317693,0.00000000000000000295730909224402,0.0000000000000000007575307113168709
0.07333333333333333,-2.7475358216338877,0.001421488858651747,-0.000003472594525705782,0.000001998758060106998,0.0000016071188022196831,-0.0000026852969218188675
0.08,-2.725318386914347,0.0016638271520351268,-0.00004722538276623066,0.00002717336877864659,0.00002261281925992052,-0.00003589116431810463
0.08666666666666667,-2.7033048849313213,0.0019352143904879265,-0.000030279697408130512,0.000017391158213730877,0.000018888114732884827,-0.000019281079844981755
0.09333333333333334,-2.6814136861325886,0.0022384349875061824,-0.00002744090108108216,0.000015808566000520038,0.000019970392602438986,-0.000014638228310604994
0.1,-2.659691649965156,0.0025756572614140487,-0.000027153371777552394,0.000015712145841258905,0.000021678948652305844,-0.000012095861581980421
0.10666666666666667,-2.638136288719763,0.0029486228741363893,-0.000027960666679016605,0.00001623289622174796,0.00002345032609075518,-0.000010346612892679197
0.11333333333333333,-2.6167292899514436,0.0033600723425123613,-0.000029448887736559783,0.000017107034165848147,0.00002500800812370279,-0.00000899041864386852
0.12,-2.595514148809875,0.003812037316119298,-0.000004964404595403576,0.0000031056395774939543,0.000036740670808465243,-0.000029714107431397668
0.12666666666666668,-2.5744432035551226,0.004308808003602672,-0.0000011855371762923772,0.0000010321669513701976,0.00003576571822849404,-0.00003567807079720963
0.13333333333333333,-2.5535133448490974,0.004853440367538405,-0.000008343116391338417,0.000005121570400049424,0.000028752205988416454,-0.000033160028282156904
0.14,-2.5327824169530015,0.005447680690280374,-0.000012449874566553616,0.000007275636022076362,0.000021956189530828008,-0.000033089288043517445
0.14666666666666667,-2.5121887411275923,0.006097009909175948,-0.000015789890395946095,0.000008759001232714874,0.00001306948141748652,-0.00003394148570933182
0.15333333333333332,-2.491738433526372,0.0068045535206327215,-0.000018966862608216523,0.000009855019899812722,0.0000005464559614105395,-0.00003538753016067621
0.16,-2.4714570648555263,0.007579054658337005,-0.00002222887908780477,0.000010640444773058598,-0.000017340403115819364,-0.00003739174654902186
0.16666666666666666,-2.451335649807167,0.008423205467289818,-0.000025712821337540986,0.000011129266937761783,-0.000042838662399122314,-0.000040069625277371925
0.17333333333333334,-2.4313879264271607,0.009343887280332783,-0.000029506393884971604,0.000011303328503476911,-0.00007892134408404283,-0.000043688424555737096
0.18,-2.4115970390523325,0.010357871634195548,-0.000033673562113390124,0.000011123208102042197,-0.00012965477725400312,-0.00004870965070034446
0.18666666666666668,-2.391974137385499,0.011467728433867397,-0.000038252770148655595,0.000010534909462431342,-0.00020054077928304085,-0.000055876956332596086
0.19333333333333333,-2.3725150254819125,0.012691810448946843,-0.00004325052951343864,0.00000948489138470428,-0.0002990761273038866,-0.00006633658218825802
0.2,-2.353197914317396,0.014052287238346433,-0.00004865391658727052,0.000007905034621290484,-0.00043569965122580224,-0.00008186660435221537
0.20666666666666667,-2.3340815891315385,0.015581152397829553,-0.000054381753608107694,0.000005740384946368795,-0.0006239967864931744,-0.00010504878868314245
0.21333333333333335,-2.31513232329216,0.017331715087666573,-0.0000603124047474322,0.0000029182969191814557,-0.0008832017515857612,-0.00013980760665239549
0.22,-2.296368592072989,0.01937615192711933,-0.00006622689697145081,-0.0000006161992069667369,-0.0012389768895618258,-0.00019184609652842636
0.22666666666666666,-2.277804470289008,0.021869348713562664,-0.00007178437516049227,-0.000004906796964464234,-0.0017257707142328067,-0.0002693788119605212
0.23333333333333334,-2.2594515838870595,0.025109757634814812,-0.00007648697785772447,-0.000009972744018867907,-0.0023895842680461696,-0.0003841238175982271
0.24,-2.24135691350304,0.029807186631795785,-0.00007963304302195824,-0.000015779809452776663,-0.003288959543798976,-0.0005520632579528036
0.24666666666666667,-2.2236491935007567,0.038093109038893555,-0.00008031673897223512,-0.00002220794595256272,-0.004489731386122575,-0.0007928368498276609
0.25333333333333335,-2.206482293721546,0.0543202011833067,-0.00007755763833952467,-0.0000290536229533704,-0.006055630202368745,-0.0011274332667709683
0.26,-2.1899239160449264,0.08622823546811627,-0.00007006761399347063,-0.000036090523628042525,-0.008083643031452706,-0.0015870358134718434
0.26666666666666666,-2.170970368332304,0.10218176247269657,-0.00005171339711369922,-0.00004418298206283698,-0.01137116537425345,-0.0023846014076127574
0.2733333333333333,-2.150739129676595,0.11022469401076646,-0.000016687497279618672,-0.000051896535693977234,-0.016332870481158012,-0.003667252585375918
0.28,-2.1316277660638763,0.0946674394565862,0.00003872226416094515,-0.00005664363005079649,-0.02306863486513105,-0.005519511634976679
0.2866666666666667,-2.1143969584007256,0.0700689291699265,0.00011544734820242968,-0.000056433496478454526,-0.031580923199614176,-0.007991709397907946
0.29333333333333333,-2.0977868556880117,0.04585924960399225,0.00021986971667192691,-0.0000494495278855344,-0.04259650626639888,-0.011341419569249405
0.3,-2.08181046658277,0.015989212073324235,0.0003542354246265507,-0.00003327306272307674,-0.056403522648725855,-0.015709284534588697
0.30666666666666664,-2.0659526057844007,-0.018086418026992002,0.0005252517727747064,-0.000004509898133063191,-0.0737894742356694,-0.021397961631369252
0.31333333333333335,-2.0482177141073152,-0.0394372252631771,0.0010544568586858013,-0.00011167289804598488,-0.09988485619238738,-0.029954735897115718
0.32,-2.029299002422727,-0.05236639063408577,0.006920967739903108,-0.0032002767879291084,-0.15316665925120437,-0.04272285314621035
0.32666666666666666,-2.00968754865364,-0.05692938065494184,0.0028085321090931684,-0.0003431270543896867,-0.2011591077806487,-0.06412304319641345
0.3333333333333333,-1.9933325635550587,-0.03382599141157663,0.0028819320439938323,0.00004527642257965179,-0.26496547922208197,-0.08797097332159692
0.34,-1.9772268904838435,-0.01564855620456318,0.0032069423642935445,0.0002920647525555056,-0.34133787162588597,-0.11717945373058974
0.3466666666666667,-1.9612707413914594,-0.001005818895777384,0.003586928695399771,0.0004834053939360074,-0.4290706160887876,-0.15171455382033175
0.35333333333333333,-1.945464764983053,0.011679099942741938,0.003945716958656548,0.0006347071514716343,-0.5261926243442728,-0.19109657141134428
0.36,-1.9298398855294945,0.023288141847506074,0.004217741298602604,0.0007510086455229255,-0.6302059740298182,-0.2346824683770252
0.36666666666666664,-1.9144187568917976,0.034579643389550586,0.0017928293364568412,0.0023040252589533114,-0.7303243316518482,-0.2716623323799654
0.37333333333333335,-1.899184181017295,0.0460077491960776,0.0020089826773182252,0.0022384666434979734,-0.8329071994755045,-0.31547551731641826
0.38,-1.8841151381936148,0.057782381350787254,0.0029262445317216864,0.0016399649412039967,-0.942509930137037,-0.36378457867321257
0.38666666666666666,-1.869190985910262,0.07008404966775769,0.0025219541924333066,0.0016440606941622567,-1.063640221510822,-0.41389951872918473
0.3933333333333333,-1.854543376917324,0.0846915033060668,0.001452544550212253,0.0016494607484219758,-1.3359033891943777,-0.48340348190383753
0.4,-1.8400711683142021,0.10418084963189467,-0.0025256339516280856,0.0030186229865525153,2.5699589975032637,-4.19992790524932
0.4066666666666667,-1.8258727394555707,0.12845595789446168,-0.005594746922945038,0.004786523726672827,6.046849391752319,-7.065937243631577
0.41333333333333333,-1.8122029731233806,0.1588784791197962,-0.0009602794798580505,0.0054360694656630845,1.108548404077088,-1.1475171255043515
0.42,-1.7985290415612136,0.16769298208648126,0.00008795863685284277,0.006346779817040536,0.08185404285554099,0.13955232499111642
0.4266666666666667,-1.7848939424436283,0.1698976724726506,0.00007734805124791613,0.007068605644627162,0.100686903836776,0.15219701883852085
0.43333333333333335,-1.771342165372773,0.1705799957423209,-0.00010635727009046688,0.007248483031372191,0.08025852883727783,0.1351926003519299
0.44,-1.757987879335284,0.17216774570960192,-0.00037019121271085167,0.0069787122646569645,0.0260490894382734,0.09505896252845263
0.44666666666666666,-1.744765405034769,0.17486106435266577,-0.0005052531425481325,0.007009469304967705,-0.06881776264823551,0.02817477782063329
0.4533333333333333,-1.7317240984022564,0.1793243880693194,-0.0003722590654053259,0.00775340565638997,-0.22861537348941335,-0.08112946725169412
0.46,-1.7190725327553107,0.18662796829989453,-0.0009197551039169942,0.007364933654900736,-0.35682970268495223,-0.15849796095637766
0.4666666666666667,-1.7066453221499502,0.19532390438983208,-0.0015866492146021137,0.006700898666396578,-0.46360524543932313,-0.22265827170517954
0.47333333333333333,-1.6946897945451016,0.20661484057130855,-0.002131631684335138,0.005972851988244421,-0.5208466219311599,-0.26613750907642236
0.48,-1.6831235329351486,0.22089776452710366,-0.002450157045757287,0.005447700256365142,-0.5655042881801147,-0.30323635113441594
0.4866666666666667,-1.6718739362471335,0.23761464774832952,-0.0025844612744171528,0.0050876020178954,-0.5999252019924285,-0.3351447902024345
0.49333333333333335,-1.6612035915982801,0.26420576438278515,-0.0022850325034155876,0.005224433912423257,-0.5599390119709601,-0.3203392082555083
0.5,-1.650702103332682,0.2936752952978187,-0.0018591672580128174,0.005506124727275331,-0.4982625842076288,-0.2919161332267925
0.5066666666666667,-1.6409757988445084,0.3591103724748774,0.00461957092048591,0.0038410532350452234,4.618413468059829,-5.065981320192884
0.5133333333333333,-1.6313647578024997,0.429893230302255,0.01199832147512448,0.0018865142140658563,10.486726350263018,-10.55413697623659
0.52,-1.6226545081991377,0.5122853959318561,0.010483402374807698,0.002956369010692364,8.010288948351572,-7.685886872741806
0.5266666666666666,-1.6141830683586784,0.5977553173268467,0.0066106731860391035,0.004828024023794094,3.321566048008812,-2.6022612755037375
0.5333333333333333,-1.606654614407217,0.7101211342187637,0.00458607203088312,0.0056862758043408615,0.6237165809399734,0.2764322457162633
0.54,-1.6003735614456565,0.8580653908928346,0.005006212377682992,0.005203977094995196,0.5594351453846564,0.23839659168639638
0.5466666666666666,-1.5940925084840962,1.0060096475669031,0.005426352724482857,0.0047216783856495375,0.4951537098293405,0.20036093765653012
0.5533333333333333,-1.5870168733085508,1.120090438614763,0.005944287059167835,0.004123330804782028,0.4397321942353552,0.16441650683261064
0.56,-1.5775266837800082,1.131267871273442,0.0067593950468607,0.003172337137755254,0.4112339572314583,0.1348268269786216
0.5666666666666667,-1.5680483720205127,1.1359820058554901,0.007584810960574449,0.0021877675206890177,0.38595365507769397,0.10706997993546559
0.5733333333333334,-1.5586424219887576,1.1013204450628897,0.008473024806571547,0.0009986465484177285,0.3802776510534566,0.09047911434269937
0.58,-1.5492618456789191,1.065574688695365,0.009358478959171128,-0.00019088612971016495,0.37478555822859805,0.07404391259348851
0.5866666666666667,-1.5414893970581087,0.9611151295170088,0.010069030140092961,-0.0014065117708628293,0.3809493309884035,0.0674743244828136
0.5933333333333334,-1.533716948437298,0.8566555703386527,0.010779581321014794,-0.0026221374120154943,0.387113103748209,0.06090473637213867
0.6,-1.5258699653417658,0.7462040030728335,0.011408745770950978,-0.003944976365352529,0.39759612585375875,0.05749610493656096
0.6066666666666667,-1.5179294064855096,0.628229652328133,0.01193573166132555,-0.005402418363585994,0.41350183383439976,0.05805595824028449
0.6133333333333333,-1.5099888476292533,0.5102553015834344,0.01246271755170011,-0.006859860361819434,0.4294075418150405,0.05861581154400802
0.62,-1.4985884541478562,0.4591951134646873,0.012614011228446376,-0.00905548132200322,0.463868084506146,0.0696780866288585
0.6266666666666667,-1.486659012214594,0.4151925717444484,0.012491720068417096,-0.011287512876217985,0.5027357572021557,0.08418640825211628
0.6333333333333333,-1.473805705501962,0.37738199992536803,0.011474104788611406,-0.013435398845189461,0.5523324544781282,0.10826749836746943
0.64,-1.4603324936410298,0.33958797025981147,0.009433176920506775,-0.015090284679372153,0.6043155271653293,0.13697287183359322
0.6466666666666666,-1.446379632354532,0.3009305161787859,0.00651027416843859,-0.016234597782321603,0.6548589734411459,0.16748418997581885
0.6533333333333333,-1.431829389806622,0.25897521874238405,0.002260149987244279,-0.016415522241747308,0.6952745012571581,0.19574996118366284
0.66,-1.4167117133792375,0.20988359812978571,-0.0036932629881048567,-0.015279363371038659,0.7126219343853232,0.2131064738806861
0.6666666666666666,-1.4011492318384766,0.14980388368935532,-0.008032634502672645,-0.01470808436629543,0.7050420528046386,0.22357518269479693
0.6733333333333333,-1.3851337674075859,0.0729634476867551,-0.01060851666083519,-0.014549172332808103,0.6687622284055645,0.22240772481252338
0.68,-1.3686746521192157,-0.0293940912110735,-0.013194943856689487,-0.013439760094744796,0.603239784945494,0.2003276281238614
0.6866666666666666,-1.3516852181544312,-0.19456655376820506,-0.014865917017464732,-0.012538176952388097,0.5185231791394667,0.17053626057912255
0.6933333333333334,-1.3333597645429143,-0.2898070929458519,-0.015301263488343276,-0.011868206350934897,0.42314733262694637,0.1365106507498912
0.7,-1.313630515761584,-0.11034350714023974,-0.013972805526831151,-0.011617910304433099,0.32650953285057205,0.10151700877202836
0.7066666666666667,-1.2941962250150962,0.20925290052332274,-0.0070496480736536365,-0.014230651947590305,0.24790486750394042,0.06674242171101191
0.7133333333333334,-1.276157339171268,0.6880557291099565,-0.010118486511966205,-0.010475093949789831,0.1824254459790577,0.05259296719130855
0.72,-1.2578179673670784,1.0535035808255953,-0.011821873003841764,-0.007096075385047808,0.13346802288292062,0.04126246246388094
0.7266666666666667,-1.2386673043926648,1.3115652997482703,-0.010369254939487541,-0.005513790300851642,0.09748659445004856,0.029357933783550522
0.7333333333333333,-1.218686564776049,1.5770044801535086,-0.008812362418794883,-0.00420523105938613,0.06899396571120534,0.020260165307570435
0.74,-1.196567242583661,1.6073379701186035,-0.007186366448536328,-0.003080313386755599,0.04630998901375037,0.013334404363799164
0.7466666666666667,-1.1737524918249642,1.3832436493369356,-0.005701244358269368,-0.0021923797786413085,0.03024996363513411,0.008692207854442514
0.7533333333333333,-1.1530222228742215,0.9616004497608153,-0.004550345024945262,-0.0015721672619947605,0.02040830168759463,0.006020707377354759
0.76,-1.1324358971857353,0.68830700802207,-0.0035858693810094443,-0.0010873711871922796,0.013697288464840892,0.004316738242203114
0.7666666666666667,-1.1109384886769695,0.5879365776723326,-0.0027455950793083984,-0.0006863136342530917,0.00890637780889985,0.0031914646838371473
0.7733333333333333,-1.0887524269445334,0.5476963127404215,-0.002035571367450476,-0.0003615486120057811,0.005620698459745024,0.002494567178182712
0.78,-1.0659866301562124,0.5277661542905169,-0.0014472038041673488,-0.00010241335812232289,0.0034307420062172967,0.002091963819237923
0.7866666666666666,-1.0427641514980408,0.5160022837509496,-0.000956412217912831,0.00010618378502504837,0.0019438541810744905,0.001868375733480177
0.7933333333333333,-1.019054681728681,0.5091623327356357,-0.0005453212628480808,0.00027356374034151677,0.0009348065087787354,0.0017622653642600924
0.8,-0.9948714655851973,0.5050830134234335,-0.00019931352924751277,0.00040620590090727725,0.00024966199068457884,0.001734482585502489
0.8066666666666666,-0.970273245287599,0.5026606507428603,0.000093940755217187,0.0005089723754886782,-0.0002173524438129052,0.0017605704929775116
0.8133333333333334,-0.9451184651289857,0.5019651047862435,0.0003412836380214082,0.0005817856146603491,-0.0005279864061748595,0.0018300438440196638
0.82,-0.9195430183317215,0.5019980652300677,0.0005572084816659204,0.0006298662841766525,-0.0007520590769922405,0.0019298461375687735
0.8266666666666667,-0.8934963019881008,0.5027700346842308,0.0007506659321078702,0.0006543935528605544,-0.0009240868918474277,0.0020565754446025077
0.8333333333333334,-0.8669719970730756,0.50430659342877,0.0009276858603485285,0.0006527449359377261,-0.0010644876828075987,0.002212553868493274
0.84,-0.839920607944031,0.5061055816089094,0.0010960070255753834,0.0006210642870572961,-0.001190823943460086,0.00240257804151247
0.8466666666666667,-0.8124181928078124,0.5086204566111403,0.001264602357234834,0.000558816125180145,-0.001316052198219759,0.002629187952256215
0.8533333333333334,-0.7843784017904214,0.5115178099877566,0.001446796062205863,0.0004529600764052424,-0.0014503922191671152,0.0029107797506725745
0.86,-0.7558748871392578,0.5149083303900401,0.0016602898996249528,0.00029464472870284307,-0.0016021489112181446,0.0032638132075011005
0.8666666666666667,-0.72681127664557,0.5185409188382949,0.001940825815093065,0.00006148388796170729,-0.0017816602140981086,0.0037265347441499453
0.8733333333333333,-0.6971825958233897,0.5229318690620387,0.0023810146472077855,-0.00030423468810102854,-0.002008614676535688,0.0043943034103628
0.88,-0.6670468172768032,0.5277442005642917,0.00320580157325185,-0.000925044954507571,-0.002316737255112927,0.005474384479785705
0.8866666666666667,-0.6363450201192071,0.5329945536069264,0.00573722902045928,-0.0025500159587685534,-0.002895422212195863,0.008152018894601114
0.8933333333333333,-0.6050806514203559,0.5386302878468399,0.031141701893269175,-0.017337220951889325,-0.006697014566474956,0.030709254139985216
0.9,-0.5731741325305159,0.5452009142860771,-0.003282258654387985,0.0024485518236544773,-0.0022364211845444276,0.0019525874102696232
