# n,energy,berry,bcd_x,bcd_y,qmd_x,qmd_y
0.00000022222222222222224,-3.2511802755916155,-0.00000003541582094067385,0,0,0,0
0.006666666666666667,-3.2037775058838456,-0.0010854413593118374,-0.00000000612447391768544,0.0000000048618255931216696,-0.0000000022116910853519075,0.000000003234915504084723
0.013333333333333334,-3.1571147487150717,-0.0021963774168902907,-0.000000012008728249552347,0.000000004654158798954453,-0.000000001929909006603268,0.0000000105687538354592
0.02,-3.111154607454532,-0.003305872060458971,-0.000000009698597891422442,0.00000000672665517389438,-0.000000005393462283641892,0.0000000159152327329892
0.02666666666666667,-3.065934724445956,-0.004386851429095003,-0.000000007518390774060493,0.000000007878754679352629,-0.0000000084134474752573,0.000000029516376726922943
0.03333333333333333,-3.0214407594773416,-0.005413542396333648,-0.0000000021715408941441035,0.000000009194784228412779,-0.00000001318654021145094,0.00000004871927879775138
0.04,-2.9776706598988927,-0.006361162965936236,0.000000004808302213589793,0.000000008297925681533058,-0.000000023777978964455327,0.00000007809498373598116
0.04666666666666667,-2.9346150728067717,-0.007207776626325024,0.00000001183477510233787,0.000000006944036389102781,-0.00000003979115626617906,0.00000011382451472935708
0.05333333333333334,-2.8922799274588975,-0.007933891587208952,0.000025533103276420664,0.00004128888519199467,0.00007551891635181945,-0.00024202819157211197
0.06,-2.850678662052471,-0.008528606061101094,0.00008274718095860513,0.0000956259171057148,0.00012817528661394144,-0.00024381487073733187
0.06666666666666667,-2.8097829535225864,-0.008994071534721182,0.00014901516064796374,0.0001657680134900871,0.0001755390794988216,-0.0002658859581215366
0.07333333333333333,-2.7790243360642637,-0.008962936204799134,0.0002123624178609563,0.00023471148898883656,0.0001978548523409586,-0.0002707562520031824
0.08,-2.7574690397548514,-0.008525225893442552,0.0002653905675569177,0.0002930113852261955,0.00019740659979882057,-0.00025923267237830784
0.08666666666666667,-2.7361134770358944,-0.008062222610109013,0.00032615835453266733,0.0003606058985936123,0.00017270070261552126,-0.00022697587206272892
0.09333333333333334,-2.714946191479449,-0.007586428181749925,0.00039544456709094387,0.0004384180113755341,0.00010990375393989577,-0.00016397293322025815
0.1,-2.6939662444519485,-0.007131030255263534,0.00047375686517139127,0.0005273481386999571,-0.000010844087633677753,-0.000057217184369550285
0.10666666666666667,-2.673201207094141,-0.006726718387231556,0.0005614414297111268,0.0006276612416831541,-0.00021677550249948988,0.00011003903136276862
0.11333333333333333,-2.6526366806612343,-0.006422918574430579,0.0006581536590040281,0.0007402260324731862,-0.0005454440499852412,0.00035967946039279334
0.12,-2.6322603520827417,-0.0062911199497422176,0.0007633330820247173,0.0008648382007688749,-0.0010473210657182138,0.0007191565617391843
0.12666666666666668,-2.6121066927049794,-0.006418691763685626,0.0008753439605219616,0.0010005655013131851,-0.0017867490139415855,0.0012209294381411977
0.13333333333333333,-2.592218129799272,-0.006947507609543679,0.000991661148374317,0.0011454732572244604,-0.002842774683109645,0.0019023933350507721
0.14,-2.5725868054203946,-0.008059960477327039,0.0011089425736786436,0.0012971154656339088,-0.004312987748649744,0.0028068901452235747
0.14666666666666667,-2.5531766812192545,-0.010126148121684185,0.001222792030938747,0.001451939798524468,-0.006356610642512148,0.0040027081877134175
0.15333333333333332,-2.5341140785253677,-0.0136861856570494,0.0013267290956613378,0.001601929387047671,-0.009130077462141175,0.005539493420153585
0.16,-2.5154279499275822,-0.019572731516253834,0.0014148296386061144,0.0017396272981525613,-0.01274284177706957,0.007433553720684494
0.16666666666666666,-2.4972046710511435,-0.02911589307053463,0.001477588673829336,0.0018579889992595487,-0.01729273088540219,0.00967258074616936
0.17333333333333334,-2.479619702053442,-0.04518391702101351,0.0014825241490052546,0.001957333508721097,-0.022782148560009367,0.012162154124345148
0.18,-2.463097815120552,-0.07310531972660039,0.0014017307379484917,0.002031653074031066,-0.029030843660536376,0.014731028254908947
0.18666666666666668,-2.448117034126834,-0.11841283321884327,0.001218785539964996,0.0020711757544576346,-0.035802578693361245,0.017208744928171628
0.19333333333333333,-2.4306096310081045,-0.1491052501009084,0.0011141081202828418,0.0020585632928828515,-0.045110757809877534,0.021108713698013287
0.2,-2.4113876911067664,-0.16976799841186013,0.0009255276780334308,0.0019905109012878126,-0.056908091849494,0.02575451782794222
0.20666666666666667,-2.390676724254308,-0.18217892050401846,0.0006467927906627757,0.0018470343769196147,-0.07108831889887726,0.030897098496335484
0.21333333333333335,-2.3686516357805063,-0.1880135959335167,0.0003000185266800588,0.0016176762239087125,-0.08723056761255767,0.03626487338108529
0.22,-2.345458302849107,-0.188111958788817,-0.00009711131373748533,0.001313042971226526,-0.10516738596153441,0.041466244786342185
0.22666666666666666,-2.3211832188031565,-0.1829282652076949,-0.0004946402414052016,0.0009518408809352736,-0.12366334909030326,0.04618687592969297
0.23333333333333334,-2.2963747570051454,-0.16829920761101688,-0.0008397338781253469,0.0005715378818125412,-0.1418357624046579,0.049894220581999736
0.24,-2.2764728694894734,-0.10447054148240921,-0.0009931889878941735,0.0002535925078887575,-0.15534304916625724,0.05255581008476666
0.24666666666666667,-2.25905006099349,-0.031402477133954845,-0.0012100161289549537,0.000055973937919599016,-0.16714850562649872,0.05413797817901757
0.25333333333333335,-2.241842018544072,0.03426906810226164,-0.0013301699389799593,-0.00012864032366542437,-0.17922260263624498,0.055726092951179466
0.26,-2.2248467634249223,0.09461701417675146,0.0012352730522434074,-0.00006700227537728137,-0.21438024206738268,0.07041118767284402
0.26666666666666666,-2.2080611756434942,0.1510057333722433,0.0037900357425211728,-0.000034564637088194486,-0.2593862813575341,0.08932311789584035
0.2733333333333333,-2.191479734471442,0.20448341701074807,0.0021198648710093744,-0.0004368260729509429,-0.288997108751435,0.09647028765270402
0.28,-2.175190098615095,0.2554029826913183,0.0013044642178029887,-0.0004971095068077053,-0.32253049346688134,0.10445567126775858
0.2866666666666667,-2.159134366618908,0.305061406147692,0.0007202779871283983,-0.0003774848197617042,-0.35882515092346107,0.11458857929381261
0.29333333333333333,-2.143308804329185,0.35391479732068115,0.00033087927175439044,-0.00011925212408804068,-0.40063432678787153,0.13041358510764686
0.3,-2.1277168821980736,0.4022447468630302,0.00013796449618545717,0.00026444707949237336,-0.4500699424076214,0.15779333302923376
0.30666666666666664,-2.1125149628275652,0.4504268556302074,0.0005121993331563702,0.0009439812698876753,-0.5189273100803191,0.2579065597707592
0.31333333333333335,-2.097621779375777,0.49854097613786114,0.01358952326633208,0.01457546821726435,12.087052489220909,11.599008769700342
0.32,-2.083053559244419,0.5427479766512434,0.024223598935505183,0.025832298237367327,22.62746422624534,20.90467880228414
0.32666666666666666,-2.0690580563733687,0.5739347333974008,0.005259884517231191,0.0073029895625095,4.8873048862996775,4.444810950855185
0.3333333333333333,-2.0564446747830623,0.607452114649412,-0.0002942162598626593,0.001538207682063831,-0.1937359956994143,-0.11979931238427942
0.34,-2.044379778534087,0.6418943882357064,-0.0005268039269421096,0.0008389406253261063,-0.2510926286376751,0.036141731548573613
0.3466666666666667,-2.0328697631020827,0.7007700103810708,-0.0002479327070368324,-0.00015006597863170866,-0.1848433885018685,0.03313869076721649
0.35333333333333333,-2.0215122392894727,0.7628071048980126,0.000043036556953018724,-0.0011005998191827779,-0.12009561729326193,0.02449122846865871
0.36,-2.011137184984585,0.8411676119129282,0.00026570395045096625,-0.0016688118439798093,-0.10540336970675745,0.022780866126156513
0.36666666666666664,-2.0006581764451767,0.9202645342710705,0.0004896345331977257,-0.0022338156614137316,-0.09145005498927491,0.021137176610143867
0.37333333333333335,-1.988898296636017,1.0084351923946917,0.000729129492177186,-0.0027592895774659724,-0.0866014957112336,0.02031499579281339
0.38,-1.9769765799612267,1.100260822823953,0.0009625646710055712,-0.0032789431479647484,-0.08265891711094557,0.019542824152224542
0.38666666666666666,-1.9646260546570649,1.2017707959316632,0.001179943644032208,-0.0037831749269605615,-0.0811168566568212,0.01890315857847662
0.3933333333333333,-1.9523798205865794,1.3140729435700478,0.0013720712798725894,-0.004270686155198504,-0.08018926877814175,0.018191724030966538
0.4,-1.940215840537026,1.4348868301001438,0.001544283301099343,-0.004745009961219357,-0.07974631262066345,0.017423685620773056
0.4066666666666667,-1.9292769007382482,1.5823871704988515,0.0016433923080861077,-0.0051681282522928005,-0.07976187350247026,0.016679561877721148
0.41333333333333333,-1.9186108301047644,1.7358317322300219,0.0017262181288971422,-0.00557984087231723,-0.07987956585440924,0.015940764959854838
0.42,-1.9100794152036333,1.9271627010616803,0.0017465968022977432,-0.005909450979468735,-0.08025257811616898,0.015256345903153098
0.4266666666666667,-1.901978830988328,2.126140161319198,0.0017543719692223497,-0.006222490601088083,-0.08067712077235535,0.014582901754894073
0.43333333333333335,-1.8926352668055373,2.316748591344618,0.0017337045782442324,-0.006580613834518847,-0.08128946753882849,0.01377543784060722
0.44,-1.8788172034389639,2.477230052374461,0.0016106492120376366,-0.0071010297754179495,-0.08257787454775992,0.012485527427270788
0.44666666666666666,-1.8631405472352218,2.6378458373671716,0.0013422919006804551,-0.007680102264867841,-0.08445824264356576,0.01094684491470807
0.4533333333333333,-1.8457028567944815,2.8016689677378044,0.0008769167024981276,-0.008302794434578768,-0.08703999971438178,0.009132963791405076
0.46,-1.8263304460969148,2.9739159914339512,0.00010953964786697835,-0.008965490757255855,-0.09071681610446018,0.007031988904179464
0.4666666666666667,-1.804811539747527,3.1606421726407494,-0.0011034916776930439,-0.009701993516511267,-0.09625283317281047,0.004769787799566542
0.47333333333333333,-1.780862676940558,3.3683959635776066,-0.003026221908888337,-0.010658022663626256,-0.10506586393318425,0.0023125559590699584
0.48,-1.756893778742849,3.5649855251308136,-0.005403337532521071,-0.011653348659877535,-0.12517866166113092,0.00153726058213923
0.4866666666666667,-1.7367220114284079,3.7135249817985945,-0.008097568238017694,-0.011853752901480857,-0.1447566290633095,0.0025282476607995383
0.49333333333333335,-1.7183171784514566,3.853533188329848,-0.0115382099661994,-0.011369205006932576,-0.15512947718485318,0.0027258011794057406
0.5,-1.6999812635727856,4.011127818251969,-0.018139711069112018,-0.01080449073605419,-0.14845531320182176,0.00433313303619552
0.5066666666666667,-1.6817259081777796,4.189152809287471,-0.030576584819816822,-0.010646126985405359,-0.11259247640088363,0.010378421237852348
0.5133333333333333,-1.6636287356150923,4.391718652195202,-0.03688426005682447,-0.008807928829918989,-0.11569876956521583,0.0008362717462937833
0.52,-1.6456608000780726,4.627047647552203,-0.04388772847180415,-0.015542732238259522,-0.09800057322113769,0.003904530219479995
0.5266666666666666,-1.6278366798682415,4.899071049930641,-0.020162007979153376,-0.0014524420339786445,-0.07332847418583356,0.010105972374380982
0.5333333333333333,-1.6101771993398941,5.2148868531915324,-0.006600253092908426,0.008020931445136291,-0.06334936223804737,0.011968148705139977
0.54,-1.5914071149285498,5.439131515928407,-0.00810110761924803,0.009602245565765829,-0.06522951264132325,0.009837181854455415
0.5466666666666666,-1.570466298969238,5.415950537545104,-0.010666234513972693,0.011519444612049543,-0.06618499560593018,0.007258076459812092
0.5533333333333333,-1.5496752193152272,5.298782479774166,-0.01316184194482466,0.013143875799166347,-0.06566246496362849,0.004643560353609327
0.56,-1.529906038823516,5.175775947111499,-0.015961146933394586,0.014615169272504534,-0.06334015127214174,0.002024532027928557
0.5666666666666667,-1.5110687319537939,5.045366597511254,-0.018873631032777373,0.01587525476907264,-0.058689655681351226,-0.0005536483821604183
0.5733333333333334,-1.4930799662820982,4.905896007359454,-0.02181033058186253,0.016907957749320298,-0.051325622823532,-0.0031866349558004746
0.58,-1.4761573651888704,4.751410133189116,-0.02458779631396525,0.01763196784596429,-0.03912777240382348,-0.0059704278327083315
0.5866666666666667,-1.4601087118271197,4.578908085149222,-0.0269646608326031,0.018030307232893433,-0.018895597983293724,-0.009724658856645294
0.5933333333333334,-1.4449612439541035,4.383663185931512,-0.028990141769434295,0.018117621705973853,0.01767088883826559,-0.015594198895078305
0.6,-1.43069455425433,4.1643396769107275,-0.03069961347282782,0.01791197224680108,0.07377857922194105,-0.024026423471267523
0.6066666666666667,-1.4178673467738663,3.8694260094945747,-0.033350060458689365,0.016376051732744926,0.06756249790589804,0.0033334821607874897
0.6133333333333333,-1.4051166156104649,3.5373867043217264,-0.03838674512822794,0.012960425814277638,1.3599297792736442,2.2650463115314348
0.62,-1.392268633043162,3.1175277791060507,-0.04991682014170703,0.004557403413515968,6.31043532470804,10.789991563135676
0.6266666666666667,-1.3784956866240008,2.790367020571863,-0.04712357920450596,0.005252632621058821,4.920010716249396,7.96245013562408
0.6333333333333333,-1.3641125644827916,2.5307514169669476,-0.036674106806939756,0.010762165072478486,0.29720875809013747,-0.5686739079675024
0.64,-1.3495486316434295,2.3289980197175666,-0.03456516311973066,0.010669344942394302,0.3427336120144029,-0.22287072730663854
0.6466666666666666,-1.335093151220494,2.1427246986478155,-0.03294331857549718,0.01014102897318684,0.33925528236033875,-0.09570428882298015
0.6533333333333333,-1.3207647077305267,1.9645365633668106,-0.03148814577098154,0.009415398576837559,0.3151603842457645,-0.07359563166762949
0.66,-1.3067190872294432,1.7898137826269198,-0.029819760677985772,0.008702992187964439,0.29837793438588506,-0.06687750472521727
0.6666666666666666,-1.293076400706014,1.6095590152621468,-0.02801494288989981,0.008049958633711595,0.2851152652161205,-0.06303275846567574
0.6733333333333333,-1.279727059045102,1.4243239199268234,-0.02614287959084582,0.0074458859364366185,0.2736231704304733,-0.06056226980007886
0.68,-1.2671878905198517,1.2218179247184706,-0.024203462689105164,0.006998200219358106,0.2640992248153134,-0.059239424953746914
0.6866666666666666,-1.2553569908075164,1.002919911793628,-0.022316090920382087,0.006630285341349556,0.2552335546476698,-0.05810092531906172
0.6933333333333334,-1.2444091991836617,0.7635834393912363,-0.02049361185496007,0.006361833085332961,0.2471886581206977,-0.05719227732334409
0.7,-1.2348740635288908,0.4913794279570507,-0.018869027853071076,0.006203994727873775,0.24020292470467589,-0.05641591056647911
0.7066666666666667,-1.2266940147911718,0.1876473069813847,-0.017434274225605558,0.006152262492541758,0.23423319101263756,-0.05576643427697748
0.7133333333333334,-1.2185139660534525,-0.11608481399428117,-0.01599952059814004,0.00610053025720974,0.22826345732059924,-0.05511695798747585
0.72,-1.2062016245895184,-0.38426655243292396,-0.013732112070818276,0.006272603238651814,0.21883560038106045,-0.05404916630302842
0.7266666666666667,-1.1925360668837774,-0.6386409697560594,-0.011172160543157807,0.0065991239150281645,0.20819533938884963,-0.052759999654366396
0.7333333333333333,-1.17585514107656,-0.8605403212527947,-0.007944661455218431,0.00733382039800117,0.19479040553135143,-0.0509109751112174
0.74,-1.1581080631189788,-1.1054833765613246,-0.004164040968223172,0.008695246865798032,0.1797027797400769,-0.04831965037381023
0.7466666666666667,-1.1396469506153977,-1.3768456843542696,0.0005281458345301206,0.01087868997431531,0.16355300034805606,-0.04531597039244334
0.7533333333333333,-1.1205036325645765,-1.6863553976870427,0.02205214017418778,0.015281162958333497,0.15344250766204937,-0.0506961432514563
0.76,-1.099025501451955,-1.9585562202448639,0.011650233160635078,0.016748808303127475,0.13201210679345066,-0.03768289286371958
0.7666666666666667,-1.0712371985238227,-1.9546385348547362,-0.0014796356034637312,0.016806568579417758,0.11676177761450443,-0.02710634557377694
0.7733333333333333,-1.0416973714727031,-1.8131856606311774,0.0017552281269104166,0.01814188996534524,0.11140239662232625,-0.027829332049962466
0.78,-1.0132824336664432,-1.6614133273807425,0.005308556775038592,0.01985507331089994,0.1057273718563753,-0.028358155147551238
0.7866666666666666,-0.9860213050966937,-1.4978968410837463,0.009289113938629837,0.02191276271514844,0.09917937920392848,-0.028436409893329913
0.7933333333333333,-0.960155214414359,-1.3175499601615415,0.013749941651655941,0.02425696729222323,0.09105163742165222,-0.027317640428213774
0.8,-0.9358959412195351,-1.1144958267752145,0.01843883764033642,0.02656286958586083,0.08113984528309008,-0.02484413221626174
0.8066666666666666,-0.9137827577251407,-0.8722428177712928,0.022782830862222603,0.02847800693742012,0.0701536772612342,-0.021117481919253653
0.8133333333333334,-0.8940296291624166,-0.5862571999462949,0.026571953564557806,0.029775373640749454,0.05933337058459382,-0.01663477451803761
0.82,-0.8749763087439005,-0.30705686710392915,0.030229133582773397,0.030399554760442378,0.04867599523270305,-0.011671324165999501
0.8266666666666667,-0.8531159712876678,-0.1428224608509822,0.03332820218064601,0.03030433585308669,0.03715648838314405,-0.00529921488780213
0.8333333333333334,-0.8300448278103137,-0.028474848957456594,0.0353474294715264,0.029303083270670785,0.02695879939030243,0.001553013475069698
0.84,-0.8060753888190594,0.0557173754737232,0.03664746024204679,0.027465987294739817,0.01918176718780376,0.008259147771159488
0.8466666666666667,-0.7813986109655083,0.12066371363275,0.038215556750135306,0.02519823751965618,0.014408625674165919,0.014780592208026843
0.8533333333333334,-0.7560537310223461,0.17324015611202093,0.04303826991523414,0.02345860188880262,0.013383692318588257,0.02267062729810148
0.86,-0.7301484065389607,0.2173847276585549,0.07626419923859595,0.03034936584049536,0.026318164567189238,0.04783692286300444
0.8666666666666667,-0.7036541199231383,0.2557631515819465,0.008769322892177779,0.011381495306770135,0.0014843917740725403,0.0067489062891962085
0.8733333333333333,-0.6766576131625813,0.29165465672418517,0.00556893380509149,0.008776943766186268,0.0009586552625299569,0.006816782445538477
0.88,-0.6492114969754147,0.326543180194317,0.0027525238424073693,0.006558120432160888,0.0007388756446548586,0.0065892902853494535
0.8866666666666667,-0.6213302871432144,0.3618299208273172,0.00036690181355723047,0.004746018704659374,0.0006698185254442781,0.006245098188729103
0.8933333333333333,-0.593064812174233,0.3986875943002436,-0.001639046192313028,0.003285876325780336,0.0006568082531807598,0.005922772090833127
0.9,-0.5644534793735106,0.43900757199700696,-0.00337277864246263,0.002081392003548718,0.0006548677198366948,0.005696089775083531
0.9066666666666666,-0.5356199052763166,0.4835839821194428,-0.0048916952767348665,0.0010960225438866105,0.0006466635556277245,0.005629982836555889
0.9133333333333333,-0.5066448603503463,0.5342787627999714,-0.0063092578377795215,0.0002512042762427822,0.0006217321988584045,0.0057595761908599994
0.92,-0.4776364676360638,0.5919381332655509,-0.007749926264734773,-0.0005200107026160667,0.0005678263851606769,0.00611636868127946
0.9266666666666666,-0.4489497971891882,0.6598406884856582,-0.00942555530450726,-0.001274468252344212,0.0004562316403967499,0.006856904011850214
0.9333333333333333,-0.42096452725078354,0.7383973423197885,-0.011681147907414306,-0.002095748945664472,0.0002479648037527887,0.008178923754488364
0.94,-0.39418893924382997,0.8285076472332772,-0.015495362563056779,-0.0031750071254091254,-0.0001488653863927414,0.010765499584384306
