# n,energy,berry,bcd_x,bcd_y,qmd_x,qmd_y
0.00000022222222222222224,-3.1039532564252434,0.0000000013037524312834181,0,0,0,0
0.006666666666666667,-3.0564972396314936,0.0000445266575840423,0.00007611102031191616,-0.00013182520695108094,0.0001692761493253007,-0.00009772706691875439
0.013333333333333334,-3.009713224829658,0.00011227809786737229,0.00021673642186479744,-0.0003753932536794197,0.0004646053124842611,-0.0002682343258077784
0.02,-2.9636487392521262,0.00022384631732174113,0.00039700899793411123,-0.0006876288204730543,0.0008146538165259526,-0.0004703287079512458
0.02666666666666667,-2.929158519810223,0.0003604180468540053,0.0005621237474951386,-0.0009736056919176649,0.0010456105275787474,-0.0006036681940787601
0.03333333333333333,-2.905640230757626,0.0004873646366977809,0.000709254694458934,-0.0012284358384399951,0.0010971165412496774,-0.0006334020136048374
0.04,-2.882764247499402,0.000636644531539132,0.0008741003431095313,-0.001513936663218903,0.0010617668109155708,-0.0006129798193240003
0.04666666666666667,-2.860047081170723,0.0008116767041120537,0.0010519574750484416,-0.0018219936466348603,0.0009413540853396048,-0.0005434475162633338
0.05333333333333334,-2.837531532281248,0.0010141848867149601,0.0012364949902994103,-0.0021415948084521582,0.0007286117888500799,-0.0004206125542260492
0.06,-2.815195793547368,0.0012450668142446875,0.0014222358892447655,-0.002463290899501996,0.0004160753520191775,-0.00024014873625351614
0.06666666666666667,-2.793025830877547,0.001505161551235922,0.001604145380137818,-0.002778353341562684,-0.000011388534819947938,0.000006650735507287574
0.07333333333333333,-2.771040173511929,0.0017968184213520552,0.0016834957246401477,-0.003116579310320837,-0.0005028282262539881,0.0003037076077003116
0.08,-2.7492328405551287,0.00212142157332895,0.001763181613316388,-0.0034278678213242354,-0.001134894311405492,0.0007046711014084871
0.08666666666666667,-2.7276038754963103,0.002481198839465781,0.0019343641014442775,-0.0036579299966359976,-0.002025547998998096,0.0012486938132529656
0.09333333333333334,-2.706150661290276,0.002876782571322687,0.002052950415959008,-0.0038461952935852192,-0.003137421125454734,0.0019079036897276683
0.1,-2.684884812735411,0.0033122077819135918,0.0021297771057313905,-0.003972504390869363,-0.004519165597229537,0.0027154594036947885
0.10666666666666667,-2.6637845823860093,0.0037876236843120198,0.0021607844015479297,-0.004021060640454339,-0.006231349123707186,0.0037050331224158213
0.11333333333333333,-2.6428937801474,0.004305215822938708,0.0021387279314161014,-0.003975326250543821,-0.008344809291820797,0.004913324921599161
0.12,-2.6221902719242896,0.004866605948847715,0.0020552035599423184,-0.003817954746135579,-0.0109542294720421,0.006390472417404858
0.12666666666666668,-2.601667353270092,0.005473148152211603,0.0021173706867380505,-0.003395068306702471,-0.01419464070945096,0.008058050783841328
0.13333333333333333,-2.5813245766017996,0.006125876700586043,0.0018760485123953457,-0.0029742856690973727,-0.01821410865850863,0.010280620665687659
0.14,-2.5611910866687246,0.006824982376919801,0.0015362739723929707,-0.002390573043143927,-0.023184116092648227,0.013021746872606453
0.14666666666666667,-2.5412507038480614,0.007572049539104866,0.0011167483168534583,-0.001613873379669055,-0.029361941408170368,0.016403302663594695
0.15333333333333332,-2.5215082502069692,0.008365359818547745,0.0006046507112865416,-0.0006466995566024585,-0.03707393609304442,0.020611613858898765
0.16,-2.5020007829634916,0.00920056940191742,0.000006655887487155864,0.0004956395571232413,-0.04672722613611696,0.025874986175721027
0.16666666666666666,-2.482722428962217,0.010078316907274967,-0.0006513406975694945,0.0017692498134165848,-0.05886504668346029,0.032502750445720666
0.17333333333333334,-2.46366671608086,0.010983554538975681,-0.0013096474649762807,0.003073690895236152,-0.07419450870788377,0.04090188169738123
0.18,-2.4448527703682785,0.011903920950250033,-0.0018482550494114361,0.0042047030995797634,-0.09360328597331283,0.05158932241106156
0.18666666666666668,-2.426315761656948,0.01282559480863024,-0.0020439967070006453,0.004779448999775597,-0.11817405559651248,0.06520231736415205
0.19333333333333333,-2.4080897478273613,0.013718275236886054,-0.001502255264668816,0.004117901851477588,-0.14917974150152577,0.08249632898192708
0.2,-2.3902026533992102,0.014534093209044346,0.0004455938991761695,0.0010649849592027432,-0.18801843340056767,0.10430615142195282
0.20666666666666667,-2.372718704024131,0.015202271238668812,0.004846369941393003,-0.006191264282572892,-0.2359750159887955,0.13140831774486514
0.21333333333333335,-2.355779247540606,0.01562611807652046,0.013018467622617231,-0.01993748603339926,-0.29372678254894,0.16423376915539545
0.22,-2.3400381073722,0.015405477403473705,0.027041997416592616,-0.04377938853626494,-0.3487126699046061,0.1956218160770574
0.22666666666666666,-2.3236139794502413,0.015029458967727916,0.044726663503396366,-0.07388709525120858,-0.33987816612741206,0.1903024777593313
0.23333333333333334,-2.306861984305857,0.0140030273566712,0.06859867771770405,-0.11464185303869917,-0.22806788590022736,0.12571023417749208
0.24,-2.2903682867924045,0.010949953376372565,0.09815929546022001,-0.16521842714786747,0.03460198291359817,-0.0257952603446074
0.24666666666666667,-2.274581075249202,0.004499949555309524,0.13008968979012187,-0.2199152570065326,0.4707898133691933,-0.2773137257766393
0.25333333333333335,-2.2576406726915925,-0.0035346890005802803,0.16048050295371996,-0.2717933424168953,0.9129050594405479,-0.531073496201873
0.26,-2.239608483571987,-0.011149552928847862,0.19004007297414607,-0.32217584380397635,1.3178099034238673,-0.7630945046381766
0.26666666666666666,-2.2209632132093966,-0.018557451800561394,0.21988888234418064,-0.3730470825446673,1.6959693251755403,-0.9793244621895596
0.2733333333333333,-2.20258644967805,-0.024995557356965657,0.2524461016482194,-0.4287086416446804,2.046042044366923,-1.178544742636531
0.28,-2.183971440517037,-0.03149483308140054,0.2866972727965256,-0.4873991898909571,2.3531055219714427,-1.3528346842445664
0.2866666666666667,-2.1642639688572864,-0.03978660466570709,0.323344803388542,-0.5503665931834596,2.575710551502186,-1.478343306829986
0.29333333333333333,-2.1453730706686,-0.04541155071221589,0.3472841861181825,-0.5915556748792948,2.783584760116417,-1.5954993764977718
0.3,-2.1280296302818638,-0.04461026732498445,0.34385409620374463,-0.5855441244554467,3.1768631128678395,-1.8213518133763298
0.30666666666666664,-2.1098813924662645,-0.03916791574150348,0.31556478928864484,-0.5366094589399442,3.8989959949420734,-2.2402535905326273
0.31333333333333335,-2.089666076811829,-0.032862965667998935,0.289842396502289,-0.49196436754482264,4.7393822607628024,-2.7312548719177503
0.32,-2.0679097906545283,-0.027315887441870617,0.27005056180145026,-0.4510621807716875,5.61386317823414,-3.2469575792614416
0.32666666666666666,-2.0458716148648235,-0.022906437966064067,0.26261758869167906,-0.41730791849886384,6.435244795052724,-3.738313805575637
0.3333333333333333,-2.0253743480950037,-0.02062835030324596,0.26454800245698534,-0.415197599928117,7.173479705483893,-4.232090870096297
0.34,-2.0045493489042294,-0.031835863097099334,0.32712501677576283,-0.5023684925043517,8.04944249620351,-4.924236957725011
0.3466666666666667,-1.9832420197236735,-0.08968764094890157,0.6798628277065585,-1.1529469282106375,10.109942079237777,-6.069565037083602
0.35333333333333333,-1.9619750727923315,-0.5805590102229506,8.786762316184603,-16.819143328116404,20.722997296805026,-11.438017208937248
0.36,-1.9430972428894584,-0.7109827528884677,8.133276189913225,-15.705024221738505,24.169217383643176,-12.977796052071634
0.36666666666666664,-1.9265596824049682,-0.12618525494554836,-4.254960674535448,8.11178077972054,12.724109297231987,-6.339635588526118
0.37333333333333335,-1.9106401149344046,0.13929087723439043,-0.783803270342079,1.7803448986206785,4.237578328230937,-1.2401580156541208
0.38,-1.8944238082812463,0.19747946181291265,-0.4512143713319206,0.9335101734116672,0.5761740137030826,0.32416268074108423
0.38666666666666666,-1.877319528907468,0.23947525965524016,-0.2904011547002053,0.5381072468194253,-1.3952817016703767,1.1137560260248498
0.3933333333333333,-1.8610035929912971,0.2673599878368932,-0.2147782005823882,0.3724992408465181,-2.392769617763979,1.5220125085451444
0.4,-1.84569041903317,0.28845101126513806,-0.16958557366847993,0.2858534852832823,-2.966713938527466,1.7835433721278482
0.4066666666666667,-1.8310733929720648,0.30786947796805275,-0.1431342611843259,0.23768687287337628,-3.277668092391735,1.9354023581653497
0.41333333333333333,-1.8173989524007679,0.32736684281361256,-0.13166694910639487,0.21791481550364766,-3.2765643271097886,1.9235168537495
0.42,-1.8037654076784195,0.34823441029374735,-0.12557335123002472,0.20789205799801547,-3.1727058560707158,1.8566151968434914
0.4266666666666667,-1.790090735310447,0.3708305605054651,-0.12481185802535151,0.20742381424496714,-2.9694067226768786,1.7361428686625033
0.43333333333333335,-1.7766299665171472,0.3976814529813196,-0.13076486704223833,0.21875162714408544,-2.8224021000606614,1.6488419639459189
0.44,-1.76336690929908,0.42739523146897607,-0.1386630039842962,0.23344992368577475,-2.6924942072610474,1.5713182276674784
0.44666666666666666,-1.750326866832495,0.46028493002393844,-0.14854267072935567,0.2515743447763309,-2.5801285225960706,1.503781325205508
0.4533333333333333,-1.7377462601943399,0.4996549121293979,-0.1594131743356218,0.27131899712386065,-2.470246970605773,1.4375072088778438
0.46,-1.7254039565586925,0.5425460328163848,-0.17004718518910536,0.29059534197301556,-2.352813696302717,1.3669437150245738
0.4666666666666667,-1.7135200884452284,0.592285107027311,-0.17987820783985842,0.3083638271977883,-2.2167528511464436,1.2858354137044863
0.47333333333333333,-1.7021241548010289,0.6504292598199364,-0.18774175613950528,0.32263469319209265,-2.0458769643950276,1.1850706771851172
0.48,-1.6910622325620064,0.7143270379137856,-0.19425848654851616,0.33451129358818027,-1.851168736013739,1.0708502945590355
0.4866666666666667,-1.6809368345092095,0.7962593646895219,-0.19646822160538446,0.33888440508237905,-1.5839554736700878,0.916563570568836
0.49333333333333335,-1.6710981142200663,0.8837122152922565,-0.19735954992617738,0.3409606368487193,-1.294547823508538,0.7500122096274815
0.5,-1.6631829735163215,1.0162189359408922,-0.19414179595704406,0.3360284568466787,-0.9980032866240321,0.5827029505789147
0.5066666666666667,-1.6560521218190767,1.1670951876687297,-0.1892486717088449,0.3282387811919017,-0.6985488718015685,0.41508467850169606
0.5133333333333333,-1.648921270121832,1.3179714393965647,-0.18435554746064586,0.32044910553712486,-0.39909445697910995,0.2474664064244803
0.52,-1.6403351131331503,1.4373394343044361,-0.17442661534336526,0.3059350064436522,-0.29674051053081163,0.21152328024607195
0.5266666666666666,-1.6315403581338317,1.5521911536720834,-0.16377586938426103,0.2904570536761474,-0.2226382071159845,0.19445397638274514
0.5333333333333333,-1.6211602881230742,1.6291577384904468,-0.13802457884289365,0.25742074397603454,-0.23746622026534686,0.2842839118194768
0.54,-1.6096103801667885,1.6781680700421653,-0.10113027260874008,0.21142774613969365,-0.31791782120260825,0.45299708849153525
0.5466666666666666,-1.598260721363402,1.718734612930136,-0.00601132091866087,0.11017491187667039,-0.5346734537584866,0.8153497967422936
0.5533333333333333,-1.5869485401815293,1.7575373450103269,0.11204507047468637,-0.024661905985165787,-0.8098838422904626,1.2115676869630938
0.56,-1.575500637413361,1.7971863574643459,0.5105950717216061,-0.7396631062665427,-1.8681714230795388,1.4134205606144288
0.5666666666666667,-1.5641001576839837,1.8621403974506818,1.5852560802570486,-2.63180975017238,-3.4355913655453283,2.0109248265798563
0.5733333333333334,-1.5528279608765065,1.9955464589314418,4.488848716881953,-7.708224228054545,-6.380253017015111,3.6786961600833195
0.58,-1.5416986154984547,3.3128996403735966,-3.589099705567139,-13.486606044873565,-2.2370649453804337,8.182284023702726
0.5866666666666667,-1.5307265267359884,5.933589567319558,-23.7559714787622,-20.037741823043465,9.70871399790743,15.807653109550861
0.5933333333333334,-1.5199568973415893,5.2711984593865715,-22.284921615770998,-12.339433704145705,4.68462885387245,15.151905054734495
0.6,-1.5093046327612105,2.705619572348718,-8.270462806817822,3.6192149899091604,-10.176812603012163,9.69562945520899
0.6066666666666667,-1.4999902382117778,1.8509648222040187,-3.659250429616805,6.399974928282308,-13.443807447962913,7.36651355784558
0.6133333333333333,-1.491158865607099,1.6140187319538937,-2.4429675099916093,4.423016024548706,-12.524766264523693,6.166421202348024
0.62,-1.4827727396175125,1.3972712866847992,-1.7093992788932835,3.1821778967272745,-11.664275358475678,5.49858460045147
0.6266666666666667,-1.474941846261787,1.2057120101138736,-1.5777872195636982,2.859299082677296,-10.876797977128911,5.494483002802068
0.6333333333333333,-1.4671109529060613,1.0141527335429512,-1.4461751602341153,2.5364202686273236,-10.089320595782159,5.490381405152665
0.64,-1.4547945469127377,0.9000322477730934,-1.456129389081877,2.5423587791427678,-9.408835931816677,5.297574948476272
0.6466666666666666,-1.4407321276786507,0.7846283068326786,-1.5843033487376208,2.7627147399233363,-8.738333639444413,5.043124236571871
0.6533333333333333,-1.4243067116969592,0.6385937986315035,-1.9615292021337092,3.4067898352222086,-8.065665102799896,4.723354597276649
0.66,-1.4069633582865873,0.4864817047682911,-2.7987436879839103,4.852846527376014,-7.560368452203409,4.4636239207624
0.6666666666666666,-1.3889225380483416,0.2989555246180454,-4.952901924985179,8.582824437724565,-7.351254974147017,4.354297870573253
0.6733333333333333,-1.3703804449329784,-0.004572932783995343,-12.590567236339957,21.818470586350514,-7.905877554308189,4.639253767560904
0.68,-1.3514030752235413,-1.2918590100532492,-37.01884638308361,63.99159593419196,-4.1066394705273686,2.8910136465128575
0.6866666666666666,-1.3323832971342646,-0.8817301739542931,14.539134484103151,-25.264230207032213,-1.63295348851715,1.2746003328908815
0.6933333333333334,-1.3132645248378383,-0.0450503630232828,29.10978749003375,-50.41959073538019,2.851882639881211,-1.5757593748206498
0.7,-1.2938831296259428,0.10388463751329154,6.018319984249366,-10.426589024849747,7.383177499003268,-4.192598692867354
0.7066666666666667,-1.2734282737336078,0.07437684845758089,2.8026156191344915,-4.861061435004947,8.954860304831953,-5.118198152354596
0.7133333333333334,-1.2502777509564662,0.04614933949885488,2.301082772141053,-3.9886562957178,9.568607531030617,-5.4937598211472025
0.72,-1.226395956152741,0.004714799398839502,3.334870310431528,-5.780541934183416,9.946531418707165,-5.712709382162819
0.7266666666666667,-1.2039652230500737,-0.11731405162407126,7.929896564297376,-13.74359113056375,10.739085466407445,-6.140578116499656
0.7333333333333333,-1.184405106696953,-0.6309384093101014,40.87359743777519,-70.86957728721198,13.420952317779756,-7.462978652772338
0.74,-1.1638869180858034,-0.5567759412399839,-99.04435952625833,171.5695307677342,7.881103290152694,-4.4855222324826585
0.7466666666666667,-1.1426097255455145,0.1800679539251422,-8.526617894939932,14.772766094382575,-2.4541446971397427,1.368336439929842
0.7533333333333333,-1.120739146394475,0.2716127873215853,-1.8179812872322254,3.1551760329582295,-3.8868228443714243,2.1937721256309737
0.76,-1.098786625277996,0.31332893241546,-0.5663256783328015,0.9895940410852463,-4.013934318141001,2.2708418924097975
0.7666666666666667,-1.0770054003406664,0.34122207890881123,-0.15374777221112151,0.27705825286052055,-3.7476629761881948,2.1228743368860634
0.7733333333333333,-1.0557317885384792,0.36043799301605234,0.02595454101738009,-0.032558231085782936,-3.290473423181863,1.8654008057962272
0.78,-1.0356990588889847,0.37023346001491175,0.12882420540103506,-0.2095846404606407,-2.732802655313068,1.5496625550921543
0.7866666666666666,-1.0166599988619842,0.3716962890532052,0.2038262662182042,-0.3387033579815788,-2.165708471422355,1.2279151995977546
0.7933333333333333,-0.9958051904628619,0.3740547076296489,0.23598921806292708,-0.39386040400808536,-1.6911716650525288,0.9594532975309884
0.8,-0.9738207962129486,0.3765572319626506,0.23092423859219455,-0.38490619796808384,-1.3232982269293483,0.7521761554295484
0.8066666666666666,-0.951051502474313,0.3788679854554456,0.20907959971855156,-0.34718382673302334,-1.0436111570354332,0.5952365181089379
0.8133333333333334,-0.9276090107287726,0.38093834354786027,0.1810491816030923,-0.29895981539465993,-0.8315081094227929,0.4767009314489518
0.82,-0.9035680832179093,0.3830037813547544,0.15185270871486692,-0.24884514860150045,-0.6699812666136878,0.38677347050673183
0.8266666666666667,-0.8789331450446994,0.3850408531762682,0.12369367482066133,-0.2005831320311153,-0.5464628541802315,0.318254347031809
0.8333333333333334,-0.8537047477232971,0.387642828184452,0.09767030187713034,-0.15599593256467018,-0.4535522264584935,0.2669098214315103
0.84,-0.8279758519634386,0.3903251466473027,0.07365926714852562,-0.11480248454204618,-0.38025895159372425,0.22655210949952004
0.8466666666666667,-0.8017268285441337,0.39341160390881724,0.051472551401702774,-0.07662731384175522,-0.32179767836408585,0.19451237115066014
0.8533333333333334,-0.7749574168515708,0.3970118358778608,0.03107018934542826,-0.041309631571263786,-0.27573158492102345,0.16946725700355528
0.86,-0.7476710536887053,0.401191060452351,0.012142667852363228,-0.008224528099389767,-0.23889950995085657,0.14971939919430005
0.8666666666666667,-0.7199075134606632,0.4060820687072274,-0.005627884269896827,0.023287631598458373,-0.20856566000669713,0.13382843644327644
0.8733333333333333,-0.691586000799533,0.41184593634340205,-0.022116426932637236,0.05335483961114049,-0.18413044947297463,0.12172082001260584
0.88,-0.6628175290485088,0.41852012095960184,-0.0370859601023785,0.08163529550930923,-0.16442202251950208,0.11308468248724457
0.8866666666666667,-0.6335207446601586,0.4262052356666558,-0.04822496721512202,0.09522253874319782,-0.15801678595015997,0.11288102532686801
0.8933333333333333,-0.6037492863839334,0.43523084176386784,-0.07840285765004046,0.14535279985049868,-0.1303842139427618,0.09189807902901709
0.9,-0.5735662700000045,0.44567859088648976,-0.10824075414061324,0.16773793411402269,-0.1260067964102855,0.08011860983947787
0.9066666666666666,-0.5428449538839439,0.4580108483474197,-0.12705511552626186,0.19672450399402386,-0.1167078791735412,0.07577845020821791
0.9133333333333333,-0.5117401260782455,0.4725146972560221,-0.14660080571713924,0.225453825921518,-0.10897544203913422,0.07284625192756514
0.92,-0.480218773875646,0.4897802808275174,-0.16788873204606425,0.2532889051759607,-0.1028342009494538,0.07214919715936971
0.9266666666666666,-0.44838932335285187,0.5106652006689675,-0.20680415980554473,0.28744294996809866,-0.10838070556930482,0.0832861722258883
0.9333333333333333,-0.4163117964011305,0.5359327415608567,-0.1843787923201248,0.30995912953079324,-0.09336668972596822,0.05623865032626241
0.94,-0.3841238993335766,0.5672016020509494,-0.18667123960484702,0.32332105928473254,-0.08572228980682711,0.0494936250576411
0.9466666666666667,-0.3521083594829128,0.6059387365156031,-0.1874996498816354,0.32475904891605806,-0.08139732846256904,0.046996480369321095
0.9533333333333334,-0.3207712522076346,0.6564411895745128,-0.17264861069856607,0.29904551919581285,-0.07782390591679558,0.04493372549801637
0.96,-0.29086877428744884,0.7202241441471221,-0.13667328942396012,0.23674426183588143,-0.07667285435188467,0.04426918863836936
0.9666666666666667,-0.2654740982522678,0.7982625611752749,-0.08201693300924834,0.14209026852394518,-0.08630479204779398,0.04983404940410529
0.9733333333333334,-0.24405179514090153,0.8409853192469894,-0.047234695415319,0.08183017636967617,-0.1048533860577247,0.060540353888746644
0.98,-0.20292353166534044,0.7159455068034274,-0.034063307005642904,0.05900236773969962,-0.11637086464159242,0.0671839062613148
