# n,energy,berry,bcd_x,bcd_y,qmd_x,qmd_y
0.00000022222222222222222,-3.05,0,0,0,0,0
0.006666666666666667,-3.0019867149616637,-0.000003963635208560619,0.00000000000000000001283135766094365,0.000000000000000000002403071600323278,-0.00000000000000000000958251498955007,-0.000000000000000000013027452411509204
0.013333333333333334,-2.954672100428788,-0.000029279952749270877,0.00000000000000000013938432788533966,-0.00000000000000000009147525208508119,-0.000000000000000000033266248277838664,-0.00000000000000000004485383212170294
0.02,-2.928636724842289,-0.00006084803069612567,0.0000000000000000002534881085065148,-0.00000000000000000006374573193243859,-0.000000000000000000036050345253099295,0.000000000000000000033739307999740166
0.02666666666666667,-2.905066826018013,-0.0001038895819972061,0.00000000000000000017356188087014567,0.00000000000000000013388461635769833,0.00000000000000000006046379879351538,-0.00000000000000000018566310151226149
0.03333333333333333,-2.8816659795229906,-0.000160515417553146,-0.0000000000000000002497814649765517,-0.000000000000000001222153746667277,0.00000000000000000011517213688851978,0.00000000000000000010220147256086901
0.04,-2.858438789612133,-0.0002316831691569942,-0.000000000000000000552835991826524,-0.0000000000000000006550940143978608,0.0000000000000000002224839330171689,0.0000000000000000003576688400373768
0.04666666666666667,-2.835366755244151,-0.0003182914673163327,0.0000000000000000011798623450379526,0.000000000000000000010120349686544946,0.00000000000000000027409609426810027,0.000000000000000000587853086034137
0.05333333333333334,-2.8124245614654737,-0.0004215188391213096,-0.0000000000000000010628626752471324,-0.0000000000000000003843877293065559,0.0000000000000000013574865794613405,-0.000000000000000000495033447192779
0.06,-2.7897338816917463,-0.000543597168022715,0.0000000000000000012927168586090939,-0.00000000000000000039144422303528506,-0.0000000000000000004017560250668048,0.0000000000000000010730923859712053
0.06666666666666667,-2.7671663581363712,-0.0006852647876544123,0.0000000000000000004868576361897318,0.000000000000000002116373303345499,0.00000000000000000008171008084076502,0.00000000000000000012687872416941377
0.07333333333333333,-2.744774649713667,-0.0008471089967298163,-0.000000000000000004268768549491936,-0.000000000000000003788914452526962,-0.0000000000000000012392245234247894,0.0000000000000000008579182324095006
0.08,-2.7225653577097013,-0.0010300051076430866,-0.000000000000000008997944854406018,-0.0000000000000000010236441305166052,-0.0000000000000000029253351967902375,0.000000000000000002629817968395187
0.08666666666666667,-2.700482772585658,-0.0012367860345710159,0.0000000000000000014990778112275606,0.000000000000000010926403480777156,0.00000000000000000158994438238088,0.000000000000000002873219166681475
0.09333333333333334,-2.6785482063410195,-0.0014672634546102294,0.000000000000000009893836903797585,0.000000000000000010895671994629063,-0.000000000000000003672790066359739,0.0000000000000000011948578309186181
0.1,-2.6567858350396123,-0.001724477660850916,-0.000000000000000014805271905900284,0.000000000000000006935579309249198,0.0000000000000000030912155138590353,-0.00000000000000000020870667926148723
0.10666666666666667,-2.635201100639653,-0.0020095726584025753,0.0000000000000000024953519936669,0.00000000000000001513893335066716,0.000000000000000004183531551661279,-0.0000000000000000057559727568279484
0.11333333333333333,-2.613783787260341,-0.0023242637067519417,0.0000000000000000014956541016286043,-0.000000000000000005678476234706961,-0.000000000000000009003782707415258,0.000000000000000005036585846868613
0.12,-2.592518217774059,-0.002669220386363203,-0.000000000000000018605855133309024,-0.000000000000000008808166613763316,0.000000000000000001369150579783959,0.000000000000000006700463202247647
0.12666666666666668,-2.5713910648887923,-0.003051361490604834,-0.000000000000000012928212801217766,0.000000000000000008755850377751682,0.000000000000000004513399819522215,-0.000000000000000009165877204723055
0.13333333333333333,-2.550454657471214,-0.003470503530598358,0.00000000000000002626619906362659,-0.000000000000000019644643706450656,0.000000000000000007561243720988837,-0.000000000000000007916557918113246
0.14,-2.529667448303334,-0.003925067622688877,0.000000000000000018687384925331065,0.00000000000000004868784179973512,0.00000000000000000922760959617734,-0.000000000000000015509320546139647
0.14666666666666667,-2.508993746421364,-0.0044224568298903795,-0.000000000000000018186638058478424,0.0000000000000000515579323235487,0.0000000000000000008188420328345034,-0.00000000000000001429918066756954
0.15333333333333332,-2.488505356623135,-0.0049658128794501525,-0.000000000000000027047726294721446,0.0000000000000000382152232139409,0.000000000000000025221527736507715,0.000000000000000004117900543281514
0.16,-2.468139401065221,-0.005554283105499763,-0.000000000000000040038696962149926,0.000000000000000045067381583542225,0.000000000000000005158450843881709,-0.00000000000000001779941268529795
0.16666666666666666,-2.4479901729453672,-0.006190832023939674,-0.000000000000000021317138751439885,0.000000000000000016598626390605768,0.0000000000000000042538776492065964,-0.0000000000000000064847994667181855
0.17333333333333334,-2.427955045677374,-0.006880750922157392,-0.00000000000000004793776678700886,0.00000000000000003643803795128165,0.00000000000000003803948592576834,-0.0000000000000000023816540439508163
0.18,-2.4080671259405526,-0.007627900101263732,0.000000000000000028331639303253726,-0.0000000000000000850236289517937,0.000000000000000036481648995152075,0.000000000000000010462253795408115
0.18666666666666668,-2.388339482915268,-0.00843713986911176,0.0000000000000000006813364665705963,0.0000000000000000024686441903241282,0.000000000000000054462128423163094,0.00000000000000003012252362319247
0.19333333333333333,-2.368734166649099,-0.00931356196000761,-0.000000000000000032971344226441524,0.000000000000000014783967985458398,0.00000000000000003997777908237389,-0.000000000000000012435952829007441
0.2,-2.3493211376784555,-0.010259927303399736,-0.00000000000000007556972446909051,-0.00000000000000017875450668299443,0.000000000000000022086073455348795,-0.000000000000000031701002745345313
0.20666666666666667,-2.3301093173397422,-0.011280436399213346,0.0000000000000000698211655882693,-0.00000000000000010043711802487931,0.00000000000000003358775736269763,-0.000000000000000033543134734425503
0.21333333333333335,-2.310975688917356,-0.012379700021399383,0.00000000000000003910020425160387,-0.00000000000000008264618964147361,-0.000000000000000037987450303426336,-0.000000000000000025482193275800672
0.22,-2.2920190701057135,-0.013561587467617512,-0.00000000000000012200966904063307,0.00000000000000018421410998110357,-0.0000000000000000002798843306277058,0.0000000000000000034148984051808376
0.22666666666666666,-2.2731821321817685,-0.014830729743973375,0.0000000000000001213460418823802,0.000000000000000007726504510172338,0.000000000000000004593087909864483,-0.0000000000000000017458268216929132
0.23333333333333334,-2.2544844401360966,-0.016204615642047962,0.000000000000000036728993788523976,-0.00000000000000016403644785912318,0.00000000000000003357569412005843,-0.000000000000000050866124913437494
0.24,-2.235994111790302,-0.01768878352119917,-0.00000000000000014265659911686707,0.00000000000000016156755727553163,-0.00000000000000006446801482071234,0.000000000000000016578065574992412
0.24666666666666667,-2.217676395626836,-0.019269447563896022,-0.0007300905318492718,0.00000000000000018511628156131941,-0.000000000000000026390253361000275,-0.00026437001153372866
0.25333333333333335,-2.199488721976222,-0.02099826960953668,-0.0005834766050924528,-0.00000000000000023164428067629496,0.000000000000000055093197160123374,-0.0002182574546779751
0.26,-2.1814551202452295,-0.02285158055252223,-0.0004699974730283483,-0.0000000000000001330417749486248,-0.0000000000000000027150495355098136,-0.00018251468401800705
0.26666666666666666,-2.1635328608622793,-0.02482170461303524,-0.00042632617693596673,0.0000000000000001325710727882714,-0.0000000000000001183419147490825,-0.00017067172075786093
0.2733333333333333,-2.145784841204971,-0.026963246597638314,-0.0004044184531140327,-0.00000000000000015902220198276527,-0.00000000000000006803612598694077,-0.0001660711627837032
0.28,-2.128224480011203,-0.029274411713555885,-0.000392777170496293,-0.00000000000000027080945520907097,-0.00000000000000010904324969600412,-0.00016476366838274318
0.2866666666666667,-2.1108065899596844,-0.03174961713369517,-0.0003868613479520819,0.00000000000000007431604178384693,-0.00000000000000020486801782862784,-0.0001652083653608158
0.29333333333333333,-2.0935103717651744,-0.03443005105214584,-0.00038467682331901813,-0.000000000000000233123973398742,0.00000000000000012938911923857058,-0.00016674574375752623
0.3,-2.0763872186796943,-0.03730494502720739,-0.000384991704610802,-0.0000000000000004846235595576393,0.00000000000000008407387848921974,-0.00016895267788139185
0.30666666666666664,-2.059462392740281,-0.040401456692612366,-0.0003871399591386914,0.0000000000000006358228383996697,-0.00000000000000037598346488015873,-0.0001715535944521624
0.31333333333333335,-2.042711607650412,-0.043750685704798516,-0.00039056877267214625,0.00000000000000013744909656715646,-0.0000000000000002807850086092678,-0.00017442669423871641
0.32,-2.026062503534605,-0.047360628112875544,-0.0003951182344458506,-0.00000000000000003598098781182051,0.000000000000000010009662845023651,-0.0001775385927384168
0.32666666666666666,-2.009579173606048,-0.051260609622843296,-0.0004003335222461293,0.00000000000000034053246603998776,-0.00000000000000005020441460992184,-0.00018070431435532417
0.3333333333333333,-1.9932890867980708,-0.05545733238968617,-0.0004059756304992292,0.000000000000000624901012652818,-0.00000000000000042823956577256586,-0.00018383600890010756
0.34,-1.9771032715159014,-0.059928088497996565,-0.0004123029184895773,-0.00000000000000016122504936197281,-0.00000000000000016702553429672093,-0.0001870677499338315
0.3466666666666667,-1.9612138920332354,-0.0649092979199314,-0.0004191981221628113,-0.0000000000000003892694072806119,-0.0000000000000002694400171889605,-0.00019030080107046768
0.35333333333333333,-1.9454586855582132,-0.07025127384186558,-0.000426281643206209,0.00000000000000022566068840637917,0.0000000000000002367932500220437,-0.00019343717483331823
0.36,-1.9298565685321525,-0.0760124005336389,-0.00043367557643006797,0.00000000000000027746529260623044,0.0000000000000004082341274375576,-0.00019654087458624851
0.36666666666666664,-1.914426055407913,-0.0822136568404636,-0.00044138229208655,-0.000000000000000653932101995205,0.00000000000000010891983362886244,-0.00019962211823591031
0.37333333333333335,-1.899220035020379,-0.08890068552804845,-0.0004492754232955601,-0.000000000000001843281225049503,0.00000000000000028507053479873705,-0.0002026103567435256
0.38,-1.884138271656166,-0.09635157457098359,-0.0004574137955581606,-0.0000000000000007545163904318496,-0.000000000000000046800561732439856,-0.00020551433670881503
0.38666666666666666,-1.8692739971241599,-0.10438707756012316,-0.00046565774952266216,0.000000000000000030099063960074677,-0.0000000000000003567559922873191,-0.00020832750199063123
0.3933333333333333,-1.8546149763757462,-0.1130402841758871,-0.00047399539172748216,-0.0000000000000001136569511134045,-0.0000000000000005532280860714062,-0.0002110530343343128
0.4,-1.8401453384203204,-0.12257371487860237,-0.00048246384115370586,-0.000000000000001985399911155598,-0.0000000000000005725176391784094,-0.0002136822362541793
0.4066666666666667,-1.8258657485987195,-0.13313587294975643,-0.0004911040452066041,-0.0000000000000013639601566536218,-0.00000000000000044058954339247454,-0.00021622271022689798
0.41333333333333333,-1.8117800354718314,-0.1444982794790631,0.008567597606189718,-0.0000000000000007550014796076303,0.00000000000000007435532588328153,-0.003929828131352115
0.42,-1.7978950125963085,-0.15664946696739965,0.027976342264340273,-0.0000000000000006918001619845436,0.0000000000000009744461194308215,-0.011901626995793169
0.4266666666666667,-1.7843450215704009,-0.17073905617326235,0.02271815024971862,-0.00000000000000030622226171777205,0.000000000000000013329432941304632,-0.010712832835979116
0.43333333333333335,-1.7709649933031004,-0.186021229498487,0.01979870010981866,0.00000000000000005529169400208987,-0.00000000000000011939554072231215,-0.010000629834545806
0.44,-1.7577439241628934,-0.20240460029738552,0.01874366150235408,0.00000000000000037315240470236324,0.00000000000000037165682749975,-0.00965667660889169
0.44666666666666666,-1.7449173107484006,-0.22131916730410242,0.017727403904921585,0.0000000000000002822452265481375,0.0000000000000002655620002957951,-0.009125671217522755
0.4533333333333333,-1.7322902617596723,-0.24209476317028872,0.016599935116145194,0.000000000000000696235542787872,0.00000000000000013516933956377255,-0.00851268517801224
0.46,-1.7198569304034423,-0.26467686389467526,0.015364513376275788,0.0000000000000016003309811887887,-0.00000000000000001880928228263444,-0.00782012034078851
0.4666666666666667,-1.7078202184638092,-0.2913828021173539,0.013926446951210095,0.0000000000000012087875744172658,-0.000000000000000801126454507134,-0.007037754659414235
0.47333333333333333,-1.695959141771429,-0.32024531824133184,0.012425968508647543,0.0000000000000007265260059604019,-0.0000000000000011378639796843925,-0.006236139625400529
0.48,-1.6844995957535556,-0.35425762506213315,0.01080095892378228,0.0000000000000003577572008255462,0.00000000000000002492237183514841,-0.005404147546884464
0.4866666666666667,-1.6734550522444298,-0.3929449218908787,0.009147685476865536,0.0000000000000003259986564939291,0.0000000000000005663353843730953,-0.004585418186903148
0.49333333333333335,-1.6627947663705145,-0.4359608687090041,0.00746824205611763,0.0000000000000006062834447401534,0.0000000000000005324086223632146,-0.0037789689957237124
0.5,-1.6526896236933468,-0.4895602308027508,0.005830612945053891,0.0000000000000012150702009962751,0.0000000000000003295681010889341,-0.00302404522202626
0.5066666666666667,-1.6428764535825255,-0.5487258448776743,0.004214975693712128,0.0000000000000019966296098069495,0.0000000000000000378889088688775,-0.002296220777767445
0.5133333333333333,-1.6340151118430386,-0.6299098318680056,0.0028164355932014194,0.0000000000000013238957226465702,0.00000000000000005814762834037145,-0.0016876468633910202
0.52,-1.625711502481849,-0.723995682116659,0.0015451055169987417,-0.00000000000000020099437579227484,0.0000000000000002611891672868679,-0.001148948867454864
0.5266666666666666,-1.6177800592735647,-0.8286503645300718,0.00047689994328890155,-0.0000000000000011036993157621902,0.0000000000000004499416593960256,-0.0006986292190294478
0.5333333333333333,-1.6110425860587025,-0.9672115921027307,0.00006035105305684911,-0.000000000000000010332329888029958,0.0000000000000005928525481643667,-0.0005318417891364929
0.54,-1.6043051128438401,-1.1057728196753893,-0.00035619783717520334,0.0000000000000010830346559861299,0.0000000000000007357634369327078,-0.0003650543592435381
0.5466666666666666,-1.59661726705049,-1.211328128793183,-0.0006549469586638748,0.0000000000000018396717159939366,0.00000000000000013427275243372317,-0.0002466123344217295
0.5533333333333333,-1.586585608121631,-1.23548409309075,-0.0006631777596641133,0.0000000000000017658639155029406,-0.0000000000000023030644463797386,-0.00024739996543395764
0.56,-1.5764649351545859,-1.249716629373042,-0.0006715323704959031,0.0000000000000007935583919748505,-0.0000000000000029446788299101146,-0.00024816164871634664
0.5666666666666667,-1.5661440818196644,-1.2416327365709505,-0.0006801654126642743,-0.000000000000002199345324815889,0.0000000000000004520412009159061,-0.00024886497911181355
0.5733333333333334,-1.5559533463050552,-1.221288241424172,-0.0006887535777841997,-0.000000000000003744444221351289,0.0000000000000020152920444230706,-0.00024952014309940476
0.58,-1.545972581366141,-1.1811588641874573,-0.0006972693250010654,-0.0000000000000029532266097171574,0.0000000000000006198814236054161,-0.0002500975811585525
0.5866666666666667,-1.5364600484624185,-1.121753232613439,-0.0007054433843128041,-0.0000000000000010716563027891696,0.0000000000000004055961076714193,-0.00025061173743169907
0.5933333333333334,-1.5276743627353266,-1.0324246355265363,-0.0007130870337626276,0.000000000000002502493149819636,0.0000000000000020247983119780703,-0.00025102765995740835
0.6,-1.5191033330399222,-0.9350121302088448,-0.0007205593453995448,0.000000000000005201912583169655,0.000000000000003215697218953543,-0.0002514233302467369
0.6066666666666667,-1.5119663111506763,-0.7835951442525838,-0.0007268870362248952,0.0000000000000020577055130537887,0.0000000000000015453195666460373,-0.0002516837056420253
0.6133333333333333,-1.5048292892614301,-0.6321781582963254,-0.0007332147270502457,-0.0000000000000010865015570620251,-0.000000000000000125058085661441,-0.0002519440810373136
0.62,-1.4961070670600534,-0.5170252446118285,-0.0007410155302931118,-0.0000000000000024183326763672465,-0.0000000000000003151459357258486,-0.0002522176230596145
0.6266666666666667,-1.4843907472060578,-0.4703672541445342,-0.0007515987216023781,-0.0000000000000003269809092833801,0.0000000000000022907107949510314,-0.00025251603396866056
0.6333333333333333,-1.4718250720257249,-0.4339923857344336,-0.0007630882299217565,0.0000000000000011335864528051387,0.000000000000002653508041265888,-0.0002527397205189973
0.64,-1.45868744534344,-0.4041631470764503,-0.000775200397717495,0.0000000000000018075255862229482,0.0000000000000017140215361727434,-0.0002529050364445445
0.6466666666666666,-1.4447398763132626,-0.3814740658835473,-0.0007882637015807355,-0.0000000000000006654824138162356,0.00000000000000009996416441744692,-0.0002529424580838778
0.6533333333333333,-1.4302490808716302,-0.36175467767046315,-0.0008020025216924577,-0.0000000000000018681446156801476,-0.000000000000000739585021394387,-0.00025285858725529524
0.66,-1.4152873856357682,-0.34452980113400944,-0.0008163462496240962,-0.0000000000000026817706599469133,-0.0000000000000005309448479500953,-0.00025265576940690485
0.6666666666666666,-1.3998469413534542,-0.32970464101879293,-0.0008313275292761216,-0.000000000000003529873335205821,0.0000000000000008746068664675493,-0.0002523164143724413
0.6733333333333333,-1.3838216918652768,-0.31699384074855896,-0.0008471351968751969,-0.00000000000000041975471516562027,0.00000000000000024500841762754224,-0.00025178348890397904
0.68,-1.3673206640675541,-0.30590320729029336,-0.0008636264192717401,0.0000000000000004608417250761873,0.0000000000000014396140840513289,-0.00025106263225959654
0.6866666666666666,-1.3503720626056643,-0.29598407282205447,-0.000880795120711889,-0.0000000000000012497567847057318,-0.00000000000000016378321352916202,-0.00025015178485535947
0.6933333333333334,-1.3329959488819085,-0.2871475865486881,-0.0008986345726976117,-0.0000000000000010876340568967868,-0.000000000000001995464287877629,-0.00024903067237356174
0.7,-1.3151874328583983,-0.279221429806653,-0.0009171635030966037,0.00000000000000020420898705911373,-0.0000000000000015037634311068336,-0.00024767804209736366
0.7066666666666667,-1.296916899761707,-0.27201872161093854,-0.0009364434644458961,-0.0000000000000016471585204074536,-0.00000000000000010522258772434473,-0.00024607433329405847
0.7133333333333334,-1.2782270428319358,-0.2657579368800262,-0.000956454770324525,0.000000000000000957833075877455,0.0000000000000015513903795666648,-0.0002442038405910939
0.72,-1.2591208844157282,-0.26011166714307943,-0.0009771898245350466,0.00000000000000021832677187466484,0.000000000000001987068102707647,-0.0002420405931808712
0.7266666666666667,-1.2395218439130529,-0.2550691426857537,-0.0009987624843734901,0.0000000000000012934103566763363,0.0000000000000027200526515195224,-0.00023955724632675497
