# n,energy,berry,bcd_x,bcd_y,qmd_x,qmd_y
0.0000015,-3.0103942758483435,-0.0000000000000016774474794786455,0,0,0,0
0.006688963210702341,-2.986307327390006,-0.00000008294083634180076,-0.000000000000000000002707096112755226,-0.0000000000000000000002628191164448719,0.00000000000000000000031601067046369946,-0.000000000000000000001291318694239103
0.013377926421404682,-2.96233750116167,-0.0000005744804211143218,0.000000000000000000011194703267208729,-0.000000000000000000006532155574205875,-0.000000000000000000003733962405286104,-0.000000000000000000014531294130323884
0.020066889632107024,-2.938561215715583,-0.0000018431782162841198,0.0000000000000000001349085122910313,0.000000000000000000053304712520940257,-0.00000000000000000002610150795313789,0.0000000000000000000014426066659651681
0.026755852842809364,-2.9149434800016127,-0.000004366532677153329,-0.00000000000000000005217169886817248,0.00000000000000000007921943144466545,-0.00000000000000000003566117223317779,0.00000000000000000007840289656564169
0.033444816053511704,-2.891425348760535,-0.000008658525835844342,-0.00000000000000000012297491331213564,-0.00000000000000000006662123807822093,-0.0000000000000000001309487159540952,0.00000000000000000006160011503657731
0.04013377926421405,-2.868128082462002,-0.00001558352187787478,-0.00000000000000000022760634852067608,-0.00000000000000000013924304858961927,-0.0000000000000000001700355516091141,0.00000000000000000005918812570401133
0.046822742474916385,-2.8449165742319957,-0.000025528801406378295,-0.00000000000000000033668691143552853,-0.0000000000000000010385022208491806,-0.00000000000000000030822115349642944,-0.00000000000000000012124060615226594
0.05351170568561873,-2.821842563188474,-0.000038850027576307085,-0.000000000000000000593295896849658,-0.00000000000000000024483188747419575,-0.0000000000000000002295388827666126,-0.000000000000000000320705697113698
0.06020066889632107,-2.798868968568871,-0.0000570973221370358,-0.0000000000000000010539295269024376,0.00000000000000000014170462465656845,0.0000000000000000003260698176638065,0.00000000000000000015844849833902098
0.06688963210702341,-2.7761515696131904,-0.00008050605976608217,0.0000000000000000021760361103547454,0.00000000000000000029379379517384895,0.0000000000000000007337402024176722,0.0000000000000000008916201364925277
0.07357859531772576,-2.7535571943524575,-0.0001105715172203576,-0.0000000000000000013984122561465476,0.000000000000000003398141372037328,-0.0000000000000000006203601243086353,0.00000000000000000081683776491888315
0.0802675585284281,-2.731119880316406,-0.000148564307532465,-0.0000000000000000015217116609628289,-0.0000000000000000015153056533523601,-0.00000000000000000017524902185205182,-0.00000000000000000013304115673410297
0.08695652173913043,-2.7088172927956036,-0.0001948283505161626,0.0000000000000000024960966352093944,0.000000000000000003313499266169241,-0.000000000000000002631523448580301,-0.0000000000000000004415933096648276
0.09364548494983277,-2.6866857816133827,-0.0002508767799836587,0.0000000000000000002815591451311206,-0.00000000000000000040385441688966843,0.0000000000000000001592164546651182,0.0000000000000000012581295212406389
0.10033444816053512,-2.6646352023824575,-0.000317615791711936,0.00000000000000000027367923260610426,-0.0000000000000000028830636128790466,-0.0000000000000000015646161198584168,0.000000000000000003635565546686147
0.10702341137123746,-2.6427354106078873,-0.0003972854331245309,-0.000000000000000001672699868791995,0.000000000000000001927535604488297,0.0000000000000000018648241437792054,-0.000000000000000002052807895638515
0.11371237458193979,-2.620988776548246,-0.0004879706165698834,-0.000000000000000012611435236069746,-0.00000000000000000589930689254034,0.000000000000000003638826633221911,-0.0000000000000000062649606911890295
0.12040133779264214,-2.599309172048152,-0.0006028841774846231,0.000000000000000009972079457198977,-0.000000000000000020938669612067022,-0.0000000000000000009394930247041297,-0.00000000000000000006825383164080176
0.12709030100334448,-2.5779247621505252,-0.0007279956013799311,-0.000000000000000007654012417616134,-0.0000000000000000012338658605940095,-0.000000000000000005388866832691814,0.0000000000000000006262748731760592
0.13377926421404682,-2.5565486803699726,-0.0008810510828121332,0.000000000000000010134876924534435,-0.000000000000000004348092894869929,-0.000000000000000007393891855676171,0.000000000000000005871180757401422
0.14046822742474915,-2.535418744945295,-0.0010509115156004177,0.000000000000000016931256807085976,-0.000000000000000003218505439209068,-0.00000000000000000004859739516074627,0.000000000000000007100379588942118
0.14715719063545152,-2.514386887629179,-0.0012468109748912943,0.0000000000000000006569359083167183,-0.0000000000000000006842527006048272,0.000000000000000003765974236545858,0.000000000000000004379019483174979
0.15384615384615385,-2.4934024424238603,-0.0014712635643433132,0.00000000000000000598967621225303,-0.000000000000000042307961088777644,0.000000000000000014461497506689852,0.0000000000000000038545671392106986
0.1605351170568562,-2.4727029316203604,-0.0017277194998977044,0.0000000000000000011463193437213625,-0.00000000000000002930880610344055,0.000000000000000014142661296711032,-0.0000000000000000015890618062747143
0.16722408026755853,-2.4520908060262268,-0.002015217184161532,0.000000000000000017915900144298272,0.00000000000000001286703081043592,0.00000000000000000979996125913564,-0.0000000000000000004820165380016476
0.17391304347826086,-2.431542596137992,-0.0023397332785530037,0.000000000000000023290777283274438,0.000000000000000020314242975614363,-0.00000000000000000713779523445832,0.0000000000000000043501943184019614
0.1806020066889632,-2.411224331530197,-0.002708213598762156,0.000000000000000022828834805674482,0.00000000000000003622833828433491,0.000000000000000005440484455839188,-0.000000000000000011641117019701648
0.18729096989966554,-2.391068460568637,-0.0031162661018675247,0.000000000000000018913369831364892,0.000000000000000022604593355224124,0.00000000000000002392139393589809,-0.000000000000000000235920762167399
0.1939799331103679,-2.3709731991032594,-0.003568847204768524,-0.000000000000000029949560812175644,-0.00000000000000002785223982766364,-0.000000000000000022099593602731074,0.000000000000000007000274667867851
0.20066889632107024,-2.351004132069463,-0.004091519959582401,0.000000000000000018534341957707687,-0.00000000000000001728524146889733,0.000000000000000003691526386989814,-0.0000000000000000023289560224589016
0.20735785953177258,-2.3311935146935303,-0.004676504742662232,-0.00000000000000002966025172919076,0.00000000000000007918257782750215,0.000000000000000010270855611231344,0.000000000000000040913708946675115
0.2140468227424749,-2.3115672770100155,-0.00530731650810622,-0.000000000000000041643983139295634,-0.00000000000000006674593379495545,0.00000000000000005448934084187853,0.00000000000000002937704710854423
0.22073578595317725,-2.2920365313072293,-0.00602325313125922,-0.00000000000000004674851739016355,-0.000000000000000026337119236713375,0.00000000000000004813960622352382,-0.000000000000000018680754311229285
0.22742474916387959,-2.272682587556414,-0.006816756748334701,-0.00000000000000011928784044170867,-0.00000000000000001408903597127948,0.000000000000000005338551354876284,-0.000000000000000012172688587817358
0.23411371237458195,-2.2533813070642297,-0.0076989210831411295,-0.00000000000000007893632527534072,0.00000000000000004670760601544207,0.00000000000000002441609104695819,-0.0000000000000000015922229629419573
0.2408026755852843,-2.234276587165918,-0.00865783210303006,-0.000000000000000013711673872989898,-0.000000000000000004070837232319756,-0.000000000000000007586003055927415,-0.000000000000000020936819979751
0.24749163879598662,-2.2153585754683345,-0.009730478731645294,-0.0006524327803079468,-0.00000000000000009206162248221958,-0.00000000000000004808770364542373,-0.0003949578978527647
0.25418060200668896,-2.1965543778446297,-0.010922794094300118,-0.0009760267016090225,-0.00000000000000012649131388315942,-0.00000000000000004469816051328746,-0.0005845506360131762
0.2608695652173913,-2.1778333956226166,-0.012225689017759582,-0.0006894414952806116,-0.00000000000000017879538262827185,-0.000000000000000004708859209630154,-0.00040090331481373723
0.26755852842809363,-2.159230620110681,-0.013675643351754238,-0.0006115626997527608,-0.00000000000000006275795822250637,0.000000000000000039225238514939214,-0.00034606019949244766
0.27424749163879597,-2.1408692355991836,-0.015266816172975152,-0.0005783555537638186,0.00000000000000020949066708852143,0.000000000000000010158846741336344,-0.0003187780962506596
0.2809364548494983,-2.1226560348226027,-0.01699502436288102,-0.0005632140272447337,0.00000000000000030891337651535403,-0.00000000000000005129991478468288,-0.00030252805607579265
0.28762541806020064,-2.1044864574817606,-0.018923680237215267,-0.0005581429059693023,0.0000000000000001524486072012467,-0.00000000000000005949235873433431,-0.0002922397004960586
0.29431438127090304,-2.0865088295802776,-0.0210406760772953,-0.0005590720039521264,0.00000000000000004449840218022874,-0.00000000000000011593827363807884,-0.0002854419993964365
0.3010033444816054,-2.068660583931405,-0.02334180783865037,-0.0005643094266375241,0.0000000000000003951712665855514,-0.00000000000000031295242252502754,-0.0002810079550061373
0.3076923076923077,-2.050964392531704,-0.025885305189688873,-0.0005721311796045958,0.0000000000000005074808893366307,-0.000000000000000034621075484494764,-0.0002779236701904819
0.31438127090301005,-2.0334747156714976,-0.0287001421942985,-0.0005816571727778633,0.0000000000000005911614617852529,-0.00000000000000007217867181238088,-0.00027568339956704686
0.3210702341137124,-2.016076093820496,-0.031779687902033435,-0.0005929561886561466,-0.00000000000000021711264468597775,-0.00000000000000002786577881491531,-0.00027421109454070394
0.3277591973244147,-1.998789365192734,-0.03516518326524147,-0.0006052833966082296,-0.0000000000000000005757444692503188,0.000000000000000052960037500674114,-0.00027312254066701945
0.33444816053511706,-1.9816852481233918,-0.03884778239078003,-0.0006185179033925921,0.00000000000000007607291082103232,0.0000000000000001602599453395623,-0.00027235545560220966
0.3411371237458194,-1.9647449057813557,-0.04291460397149243,-0.0006326941554827189,-0.000000000000000037167543840936255,0.00000000000000023030291695168155,-0.0002718932055043931
0.34782608695652173,-1.9479193180374925,-0.04743606737648224,-0.0006477181513451071,0.0000000000000005212988567596538,0.00000000000000015067473062954833,-0.0002716515638681011
0.35451505016722407,-1.9312716922698732,-0.05222937708617358,-0.0006633900442472219,0.00000000000000025379435627098077,-0.00000000000000010675077642438032,-0.00027155295281275517
0.3612040133779264,-1.9148637039214074,-0.0575325550749328,-0.0006789174017194784,0.0000000000000005730675304836148,0.00000000000000014644652511533218,-0.0002712484755774372
0.36789297658862874,-1.8986055308060847,-0.06343926831788592,-0.0006952946812850817,0.0000000000000003241677678396341,-0.00000000000000001229706355200625,-0.0002711270213744524
0.3745819397993311,-1.882499995500093,-0.06988273020282589,-0.0007117127439730275,0.0000000000000004540232879126471,-0.0000000000000002358411550197858,-0.0002708772130764915
0.38127090301003347,-1.8664985808383108,-0.07693450815453094,-0.0007284363326922811,0.0000000000000003831312477503073,-0.00000000000000020465603198613483,-0.0002705765217646233
0.3879598662207358,-1.8506018028918871,-0.08466191559488004,-0.0007457384281115492,-0.0000000000000004040479965843838,0.0000000000000001232737374611312,-0.00027032716677514106
0.39464882943143814,-1.834987702213915,-0.0930688182566977,-0.0007630890668812708,-0.0000000000000010968967801532433,0.00000000000000013337319646288245,-0.00026998382576601384
0.4013377926421405,-1.8195528456011718,-0.10247609651606276,-0.0007806208290838285,0.00000000000000029854155514347687,-0.00000000000000019914102117756589,-0.0002695260382805327
0.4080267558528428,-1.8043385995594794,-0.11278734154078007,-0.000798193076800971,0.0000000000000005476019905868375,0.00000000000000028066044564053467,-0.00026897549653712903
0.41471571906354515,-1.7892939886392842,-0.12400919542907436,0.005786982027415207,-0.0000000000000002590491972659138,0.0000000000000006777432788711418,-0.004221167538202254
0.4214046822742475,-1.7743640024637648,-0.1361656395252088,0.0240302201502008,-0.0000000000000015854842177777042,0.000000000000000043506200307189256,-0.015135516807370387
0.4280936454849498,-1.759628606019397,-0.1500853257923694,0.01935317454418801,-0.00000000000000042902389530262884,-0.000000000000000603406930685516,-0.011837611072401045
0.43478260869565216,-1.7451284654736214,-0.165338310221522,0.017805840797161146,0.00000000000000022978483039921536,-0.0000000000000005646178579490337,-0.01053304645036123
0.4414715719063545,-1.7308446385903087,-0.1819680278569298,0.017536717659419686,0.00000000000000035822413223802533,-0.0000000000000003479596921996827,-0.010069994063525545
0.44816053511705684,-1.7167866771858205,-0.20016959326210765,0.01717741967020372,-0.00000000000000013196428489937753,-0.0000000000000003487708663613047,-0.0096025428283554
0.45484949832775917,-1.7030008351935033,-0.22104629728031422,0.0165216907654234,-0.0000000000000003403870458280821,-0.00000000000000003196934087325263,-0.009031247231947289
0.46153846153846156,-1.6893648748939227,-0.24402355379510998,0.01568895406768654,0.00000000000000013009662878401874,-0.00000000000000002685733104188653,-0.008401946058561536
0.4682274247491639,-1.6758972783524981,-0.2690546311853592,0.014693076502270247,0.000000000000001123959587187243,-0.0000000000000003185828372187871,-0.007721295000858958
0.47491638795986624,-1.663028741286971,-0.2976293371991232,0.013480624027769452,0.0000000000000009928075759185697,-0.0000000000000005312855083514693,-0.006992990915076879
0.4816053511705686,-1.6503989502453729,-0.3293043678937607,0.012159248828370085,0.0000000000000004740906617357363,-0.00000000000000007166442551260394,-0.006245961760978041
0.4882943143812709,-1.6379675958889661,-0.3635562714617758,0.010747341170606897,-0.0000000000000003667555736610795,0.0000000000000009467667891891547,-0.005483369036748864
0.49498327759197325,-1.6259764806458534,-0.4052263064608684,0.009197412558837157,-0.000000000000000010710226715375366,0.0000000000000010674875260288738,-0.004714119770397618
0.5016722408026756,-1.6142399193012202,-0.45056847566087055,0.007631147435976655,-0.000000000000000047763656194324607,0.000000000000000993675003884714,-0.0039577313505033745
0.5083612040133779,-1.6029888479134262,-0.5028440588240042,0.006040939264216814,-0.0000000000000009578870265810561,0.0000000000000005857335726357927,-0.003227770688416812
0.5150501672240803,-1.5923835993654663,-0.5642268537310745,0.004519998464743589,-0.0000000000000009469448442249103,0.0000000000000003475921456011969,-0.0025552528529586695
0.5217391304347826,-1.5822309899044351,-0.6319926375229981,0.0030476052207483403,-0.0000000000000002904536891776456,0.0000000000000002284587717470517,-0.0019229950810845165
0.5284280936454849,-1.5732225524207306,-0.7209783876428385,0.0018033232781997518,0.00000000000000026145340544452886,0.00000000000000005232048676884976,-0.0014073396139820677
0.5351170568561873,-1.5648134583921418,-0.8210796415404684,0.0006785312534862858,0.0000000000000007585769768137807,-0.00000000000000015367827466630122,-0.0009527631014434497
0.5418060200668896,-1.5568315137606479,-0.9307593671037755,-0.00020693314020229445,0.0000000000000009778203754919517,-0.00000000000000016591909607815,-0.0005976884914712175
0.5484949832775919,-1.5497406020392435,-1.060419768141579,-0.0005931605058456156,0.0000000000000006174062102987223,0.00000000000000022601881324480183,-0.0004501746796791424
0.5551839464882943,-1.5426496903178388,-1.1900801691793825,-0.0009793878714889368,0.000000000000000256992045105493,0.0000000000000006179567225677536,-0.0003026608678870674
0.5618729096989966,-1.5330991124421622,-1.2733478523658182,-0.0011595345776865722,0.00000000000000010212403401480331,0.00000000000000036098467534382976,-0.00023609479155897975
0.568561872909699,-1.521602520106508,-1.3199110016383238,-0.0011766364159835404,0.00000000000000010987800614797653,-0.0000000000000004093855647488345,-0.00023357214789014412
0.5752508361204013,-1.509300068233133,-1.3541416187333428,-0.0011951231035636906,-0.0000000000000010704274404524782,0.0000000000000003471538124721768,-0.00023070525626755928
0.5819397993311036,-1.4966419488889515,-1.383630436889714,-0.0012142216484230567,-0.0000000000000016555097180978134,0.0000000000000007165159454650267,-0.0002276668652723021
0.5886287625418061,-1.4834173038114793,-1.4062871508266817,-0.001234295461540419,-0.00000000000000014146596083494167,-0.000000000000000621724660037343,-0.00022433518658963875
0.5953177257525084,-1.470107908277508,-1.422194489932567,-0.0012547296750253715,0.0000000000000007623106239361318,0.0000000000000002364733805690066,-0.00022082283514958013
0.6020066889632107,-1.456675238562348,-1.433987986555679,-0.0012754831216197121,0.000000000000001008599479007839,0.0000000000000006910532846144876,-0.00021716514278211449
0.6086956521739131,-1.4430296498749828,-1.440827286541447,-0.00129671063004137,0.00000000000000020609486908510404,-0.0000000000000009087507445856854,-0.00021330072004395936
0.6153846153846154,-1.429248792776451,-1.4418213840566823,-0.001318303567160695,0.000000000000000932190769929786,-0.0000000000000022408120635429525,-0.00020919369914075282
0.6220735785953178,-1.4154341523839598,-1.4389315983324236,-0.0013400834673092464,0.0000000000000004285855117107608,-0.0000000000000026536012002784617,-0.00020494856066247545
0.6287625418060201,-1.4015923328336024,-1.432064374652938,-0.0013620467412793953,-0.0000000000000016603274549501956,-0.000000000000002099626816786049,-0.0002005668619839204
0.6354515050167224,-1.3875749297405873,-1.4176429767569798,-0.0013844683388285128,-0.000000000000002347225979008428,-0.0000000000000027205593696569424,-0.00019590941169096726
0.6421404682274248,-1.3736723113216327,-1.398645862279303,-0.0014068065176909771,-0.0000000000000024473007004589258,-0.0000000000000010284745628919084,-0.00019114051765245632
0.6488294314381271,-1.3598192332992478,-1.3752189559403525,-0.0014291638847406536,-0.0000000000000014183354659550223,0.0000000000000011820541363823525,-0.00018625406301176248
0.6555183946488294,-1.3459221130231755,-1.3453183912595275,-0.001451738268541286,0.000000000000002321185841685253,0.000000000000000896589729476165,-0.00018117752092790848
0.6622073578595318,-1.3322221669862204,-1.3076138053207684,-0.0014741075857313587,-0.0000000000000007886056667773273,0.0000000000000013331233505763564,-0.00017598795992322013
0.6688963210702341,-1.3186375175899403,-1.263930963703829,-0.001496361142554673,-0.0000000000000030073941542203666,0.00000000000000107196444294563,-0.00017071559558061778
0.6755852842809364,-1.305168462007417,-1.2133885236147983,-0.0015185011812935774,-0.00000000000000133640117831872,-0.0000000000000005740652784142834,-0.00016534998400142612
0.6822742474916388,-1.2920523436528244,-1.1511152574054548,-0.0015401517877613835,0.000000000000002099552069139669,0.00000000000000013426914874248163,-0.00015992490538513683
0.6889632107023411,-1.2792506122145668,-1.0816028616639282,-0.0015613284213395018,0.0000000000000021953301918646606,0.0000000000000005354661099370539,-0.00015452668837942602
0.6956521739130435,-1.2668316150692498,-1.0036601850117124,-0.0015819235118239,-0.000000000000002360695169137614,0.0000000000000002761933357448162,-0.00014917068757720604
0.7023411371237458,-1.2551413839332528,-0.9063382796835071,-0.001601354986035674,-0.0000000000000024835739087320224,-0.00000000000000043911075626606566,-0.0001439693227645043
0.7090301003344481,-1.2438991527088024,-0.8000130954302406,-0.0016200541362050272,-0.0000000000000018290658230130352,-0.0000000000000011785833501550174,-0.00013891465997102707
