# n,energy,berry,bcd_x,bcd_y,qmd_x,qmd_y
0.0000015,-3.3999956162668696,-0.00000000000000001899043621878579,0,0,0,0
0.006688963210702341,-3.351783911384226,-0.000003913635226281614,0.000000000000000000014975681932451203,-0.000000000000000000009566082154756345,-0.000000000000000000002508094280499107,-0.000000000000000000007685300366271327
0.013377926421404682,-3.3043690689351815,-0.000030082262701004336,-0.00000000000000000009972395444705696,-0.00000000000000000008698548372258296,-0.000000000000000000007628948713841363,0.000000000000000000042510405021059976
0.020066889632107024,-3.2575603721351656,-0.00010209737988201018,-0.000000000000000000009975098331293935,0.00000000000000000009946584948509268,0.00000000000000000009732123124022706,0.00000000000000000010382185381595972
0.026755852842809364,-3.2115139690117376,-0.0002459094981243389,-0.00000000000000000015057327314071374,-0.00000000000000000028918276232597145,0.000000000000000000047817921267978587,0.0000000000000000002131709923809534
0.033444816053511704,-3.1660176836481724,-0.0004902687892217387,0.0000000000000000005001029066646384,0.0000000000000000015315994337136885,0.00000000000000000037880919722751903,-0.00000000000000000006607403241994078
0.04013377926421405,-3.1212287729863775,-0.0008669894799897976,-0.000000000000000000901165013694435,0.00000000000000000499412377496655,-0.000000000000000001007214200973506,0.000000000000000000037707090387015523
0.046822742474916385,-3.077106667585616,-0.001410421397352475,0.0000000000000000014068602062173309,0.000000000000000000450872992542934,0.000000000000000002172898850402846,0.0000000000000000010303810749045778
0.05351170568561873,-3.033633810594164,-0.002158789947457066,-0.0000000000000000005869598945376335,0.0000000000000000009170234491186683,0.0000000000000000015601447120148968,0.00000000000000000019375573236950209
0.06020066889632107,-2.9908333082977765,-0.003155765788408994,0.000000000000000002798776768615339,0.000000000000000004148211285120804,-0.0000000000000000023009088203285996,-0.0000000000000000006800784056589053
0.06688963210702341,-2.9487277232280804,-0.004445046929007629,0.000000000000000007788025218282207,-0.0000000000000000014940753061430401,-0.000000000000000009443495896480284,0.0000000000000000022449054439774138
0.07357859531772576,-2.9069451320748034,-0.006080131238727141,0.00000000000000000460751279876292,-0.0000000000000000009927538561219806,-0.0000000000000000012890964894030756,0.000000000000000010378779659781058
0.0802675585284281,-2.8659598038253127,-0.00811376337611781,0.000000000000000005215367220618857,0.00000000000000000053007092464177275,-0.000000000000000017379813966980557,0.00000000000000002026914981331481
0.08695652173913043,-2.8256922818818655,-0.010612009882190937,0.00000000000000002871899216604213,-0.00000000000000004142564129629269,-0.000000000000000010226282482133235,-0.000000000000000010136621713058807
0.09364548494983277,-2.785871883806159,-0.013665893093939221,0.00000000000000002967636450565812,-0.000000000000000030228512698933116,0.000000000000000048274049698451735,-0.000000000000000003596139929706097
0.10033444816053512,-2.7469179526818346,-0.017328771621138057,-0.000000000000000018913084553021872,-0.00000000000000004090301321428493,-0.0000000000000000006279730830269779,0.000000000000000012182242225401791
0.10702341137123746,-2.7083907077361316,-0.021682673125096363,-0.00000000000000003878906614197925,0.00000000000000001505233955136085,-0.00000000000000002070832697050648,-0.000000000000000014557088679906075
0.11371237458193979,-2.670378638933818,-0.026833076724918706,-0.00000000000000009169973026110139,-0.00000000000000005425407961226808,0.00000000000000005268938776628616,0.000000000000000044456268725902634
0.12040133779264214,-2.6332980489361795,-0.0329294695181733,-0.000000000000000019594355685382403,0.00000000000000016156463182184794,-0.00000000000000002925209894990053,-0.000000000000000008839054117721591
0.12709030100334448,-2.599013159926438,-0.03952255130139378,0.00000000000000013768720054611567,-0.00000000000000014563764151569724,-0.00000000000000011358138086727026,0.000000000000000011980596759353808
0.13377926421404682,-2.5773060018311784,-0.04426245799181737,-0.000000000000000006797568142346288,0.00000000000000014954197703739836,-0.0000000000000001089870518169045,-0.00000000000000003397595944810253
0.14046822742474915,-2.5568331628412677,-0.049203634206762055,-0.0000000000000001815033969757704,-0.00000000000000010622143496668413,0.000000000000000007986691766758336,-0.00000000000000010666478475506546
0.14715719063545152,-2.536446612489364,-0.05462669227860287,-0.00000000000000010778482111771454,-0.00000000000000006680764161048814,0.0000000000000002010163824166481,-0.00000000000000002685542724401883
0.15384615384615385,-2.5162977523562624,-0.060550298076617895,-0.0000000000000002422810830877988,0.00000000000000003041127894958577,0.000000000000000046846166021025393,0.00000000000000010153295194522744
0.1605351170568562,-2.4962645206362013,-0.06700641075792829,-0.00000000000000026283178292595028,-0.0000000000000003283113244189361,-0.00000000000000008025496143972459,0.0000000000000000347164430817967
0.16722408026755853,-2.476457885638346,-0.07397713326425945,0.00000000000000010155894546813492,-0.00000000000000030263224919841116,-0.00000000000000007611591033769997,-0.000000000000000017165795226475097
0.17391304347826086,-2.4567474798033593,-0.08154703061911385,-0.00000000000000007989417284651927,-0.0000000000000006590040239936708,-0.00000000000000011879962395730865,0.000000000000000011053747535071985
0.1806020066889632,-2.437267155408353,-0.08977657518823799,-0.00000000000000016173830376821546,-0.0000000000000005265986804185975,-0.00000000000000008755598664390031,0.00000000000000005962562951070756
0.18729096989966554,-2.417984861238509,-0.09869397551019701,-0.00000000000000008238134675112614,-0.0000000000000000933481865223622,0.00000000000000005425003740517685,0.00000000000000006063778493330015
0.1939799331103679,-2.398808351809104,-0.10835461024830592,-0.00000000000000020758597252849688,-0.00000000000000020508931847107742,0.0000000000000001132243506065417,0.000000000000000025809129051539145
0.20066889632107024,-2.3799178402424497,-0.11880510825315263,0.00000000000000010462689272292989,-0.00000000000000018828439840432556,-0.00000000000000013346601775036017,0.000000000000000053270585574100174
0.20735785953177258,-2.3611718094102283,-0.13017663476503574,-0.0000000000000003270289087733342,0.0000000000000004467923218465228,-0.0000000000000002925310405883043,0.00000000000000010992956231879308
0.2140468227424749,-2.342503833142903,-0.14264626178378853,-0.00000000000000041166946263591358,0.000000000000000913222046427038,0.00000000000000018291657514861533,-0.00000000000000020911694685696964
0.22073578595317725,-2.324114797322621,-0.15606747511347407,-0.0000000000000003030594214788387,0.00000000000000031076901935789325,0.0000000000000004383311496620905,-0.00000000000000011532600995040655
0.22742474916387959,-2.305937362306801,-0.17060567092984566,-0.00000000000000021193810315835318,-0.00000000000000004262352092967726,0.0000000000000002979586114634168,0.000000000000000018609968056209984
0.23411371237458195,-2.287925715592852,-0.1863499166825423,-0.0000000000000002511024822341498,0.000000000000000021798880476033216,0.000000000000000055078848616904224,0.00000000000000003235867044525004
0.2408026755852843,-2.270105507496775,-0.20324015543089408,-0.0000000000000004104820039949312,-0.0000000000000008919379641426903,0.0000000000000003172317895740073,0.00000000000000019701191719492295
0.24749163879598662,-2.2524517386933827,-0.22208151175127497,-0.0000000000000004346060081172495,-0.000000000000000729610130085141,-0.0000000000000001649053845401292,-0.00000000000000029373226871628273
0.25418060200668896,-2.2351024219531883,-0.24243145065603014,-0.0000000000000007100832496145901,-0.0000000000000003070863157238816,-0.00000000000000011944036375600805,-0.00000000000000016004806713204274
0.2608695652173913,-2.2179612223308864,-0.26445098919279353,-0.000000000000000455405437068136,0.00000000000000039557896180401356,-0.00000000000000004838747072757876,-0.00000000000000008332976802525747
0.26755852842809363,-2.2009918616192805,-0.28827612101501443,0.00000000000000030393582381154045,0.0000000000000009477065314123101,-0.00000000000000005747889179714867,-0.0000000000000002342855879130411
0.27424749163879597,-2.1842535399017793,-0.3144338438343136,0.00000000000000026847129975926737,-0.00000000000000024842694149658563,0.0000000000000002932582484759668,-0.00000000000000013317723342388032
0.2809364548494983,-2.167705700397366,-0.3432733328929659,-0.000000000000000007526392438152373,0.0000000000000010590966681602689,0.0000000000000005226936772887807,-0.0000000000000004939161740557144
0.28762541806020064,-2.1514198464125847,-0.3746052056822631,0.012638208915307736,0.0000000000000014009386708747857,0.0000000000000002840839519451197,-0.005736632413583246
0.29431438127090304,-2.1353919448803693,-0.40849210058610036,0.033813785891394055,0.0000000000000005287488861415249,-0.0000000000000002591608441751238,-0.015441127663769552
0.3010033444816054,-2.1196160566109272,-0.4464221263657955,0.030903751330740213,0.0000000000000005731006795989447,0.000000000000000030242941039701454,-0.014828190021064641
0.3076923076923077,-2.104181339534753,-0.4882288017986639,0.028840059048108158,0.00000000000000039652897136273665,0.0000000000000001741985461677602,-0.01405032474092045
0.31438127090301005,-2.089045588384758,-0.5334069696544707,0.02699240294274582,0.00000000000000005349246660100682,0.00000000000000016693017994419943,-0.013112460239227245
0.3210702341137124,-2.0743494365539323,-0.5835143242287056,0.024882053007886186,-0.0000000000000005043591910416172,-0.00000000000000008894225310758729,-0.011922246935330639
0.3277591973244147,-2.0599972901449557,-0.6404708015227275,0.022405423678927838,-0.0000000000000006082024682079277,0.000000000000000042126518280166935,-0.010556089054725852
0.33444816053511706,-2.0458898396309397,-0.7020012540643359,0.019744408047358455,-0.0000000000000004040577320031282,0.00000000000000035079803862514433,-0.009118278403033614
0.3411371237458194,-2.0322960003170145,-0.7726908871700879,0.016809229037948535,0.00000000000000042438431892078466,0.0000000000000008875601677368261,-0.007609355847564234
0.34782608695652173,-2.0192549950103773,-0.8528978476104268,0.013803256770960153,0.0000000000000002437779979176736,0.0000000000000007529606041915036,-0.006128389402507227
0.35451505016722407,-2.0065999230750826,-0.9397488534169927,0.010747863737149452,-0.0000000000000006412449018278046,0.00000000000000014968350268337847,-0.004666939115643924
0.3612040133779264,-1.9950726080970151,-1.0493530779318392,0.007902929328301682,-0.000000000000000804330862089578,0.00000000000000012020295542543093,-0.0033829243090010034
0.36789297658862874,-1.9837623096365804,-1.1633357496443364,0.005098493891863255,-0.000000000000000828493059076807,0.0000000000000002011392220340914,-0.0021330537652465703
0.3745819397993311,-1.9756041666300073,-1.3447063543352247,0.0033573391713173466,0.00000000000000016536883846183816,0.000000000000000426574687192992,-0.0013968903974819395
0.38127090301003347,-1.967874857884802,-1.5352447348185476,0.001760838230415418,0.0000000000000012977275890335215,0.0000000000000006716685124758006,-0.0007306142039380742
0.3879598662207358,-1.960093862068597,-1.724844776001181,0.00018618585034528044,0.0000000000000023733327007688792,0.0000000000000008894031859400483,-0.00007348765974126625
0.39464882943143814,-1.9488137025891752,-1.850920173182631,0.00009065946207709585,-0.0000000000000003932274897538343,-0.0000000000000007450497002277798,-0.000035783340619043055
0.4013377926421405,-1.9374015619484515,-1.974935872728137,0.0000000000000014753504582939719,-0.0000000000000029796315244182853,-0.0000000000000021614806313672554,0.00000000000000043737043433123574
0.4080267558528428,-1.9235309206824809,-2.0605842183586294,-0.0000000000000008362549044631885,-0.0000000000000022101473592042724,0.0000000000000004833279921922061,0.0000000000000015350272762762502
0.41471571906354515,-1.909204042055429,-2.1407642989471722,-0.0000000000000017678001285234049,-0.0000000000000009528375409807724,0.0000000000000010959093731157409,0.0000000000000018050418780058404
0.4214046822742475,-1.8943286148784748,-2.2143697122350514,-0.0000000000000010400555783619778,0.0000000000000008910004255058283,-0.0000000000000007349200713645662,0.0000000000000010799561450500025
0.4280936454849498,-1.8788470638858468,-2.2810446217923097,-0.0014475627624311903,0.0000000000000009689146344400184,0.0000000000000006366188336208383,-0.0005151844648613105
0.43478260869565216,-1.862999693517572,-2.3446716148414346,-0.0016327737991913868,0.0000000000000013853613017253686,0.0000000000000011578844389410858,-0.0005873767099039496
0.4414715719063545,-1.846809619257855,-2.4052501004393787,-0.0008186872837234655,0.0000000000000017001674025814257,0.000000000000000716247791889445,-0.0003084127533585416
0.44816053511705684,-1.8303885325654232,-2.462622542973274,-0.0007024561067076015,-0.00000000000000027037530319499703,-0.00000000000000037400251787322025,-0.0002730674838938217
0.45484949832775917,-1.8136226034451957,-2.517318672527107,-0.0006440033680567182,0.0000000000000006406334812991313,0.0000000000000005437492090912809,-0.00025741633691032375
0.46153846153846156,-1.7966204821178333,-2.5700932898440065,-0.0006103895896123685,0.0000000000000020515215887011645,0.0000000000000005738542634427219,-0.0002500810531741668
0.4682274247491639,-1.7794110620945172,-2.6210751571142077,-0.0005911995707555685,0.000000000000002215712642278978,-0.0000000000000005344543037218933,-0.00024746682289884987
0.47491638795986624,-1.7620153529619045,-2.670250792165611,-0.0005821044932297315,-0.0000000000000017461476019737054,-0.0000000000000008866648353413008,-0.0002481238074145901
0.4816053511705686,-1.7445011595906355,-2.7172951366744496,-0.0005791089597790364,-0.0000000000000018387304773846036,-0.00000000000000011476540049711591,-0.0002505479264398375
0.4882943143812709,-1.726757484719122,-2.763230405201751,-0.0005792468240539758,-0.0000000000000009173029692748944,-0.0000000000000006291419343456618,-0.0002538105940905648
0.49498327759197325,-1.7089377898273783,-2.8076731211746284,-0.0005822161415523347,-0.00000000000000016645693181084846,-0.000000000000001471960066851993,-0.00025780570806731236
0.5016722408026756,-1.69109406003728,-2.8505348542434086,-0.0005875805703563672,0.00000000000000005898245490056011,-0.000000000000001620075714260617,-0.0002623886320525811
0.5083612040133779,-1.6729606220980515,-2.892369374037026,-0.0005947491907826111,0.0000000000000010809059431957974,-0.0000000000000006595579492186966,-0.0002673415852808945
0.5150501672240803,-1.654859222574172,-2.9319921930048753,-0.0006039298214707314,0.0000000000000015829620450277446,0.000000000000000248292641486129,-0.00027268362819085536
0.5217391304347826,-1.6366625456473858,-2.9707041519997177,-0.0006141995881791345,0.0000000000000003141215785148567,0.0000000000000005029864744304431,-0.0002781322849131792
0.5284280936454849,-1.6184338156104123,-3.0081134774740548,-0.0006253748345024382,0.0000000000000005021086387224982,-0.0000000000000003297225295152712,-0.0002836084615961651
0.5351170568561873,-1.6001836326960677,-3.0441073324490557,-0.0006373548155135721,0.0000000000000012402569076519004,-0.0000000000000006248968103586545,-0.00028907399540814983
0.5418060200668896,-1.5818706031250807,-3.078809771121037,-0.0006501143830578875,-0.0000000000000006693679656415465,0.00000000000000167898152437653,-0.0002945216331590789
0.5484949832775919,-1.5634531434094405,-3.111920665588199,-0.000663725310439743,0.000000000000000013434884508283287,0.0000000000000010878903027576017,-0.0002999346704588362
0.5551839464882943,-1.5451943804036763,-3.1432892573841995,-0.0006782206695369182,0.00000000000000033738855041552125,0.0000000000000004634672504688924,-0.0003053443455102508
0.5618729096989966,-1.5268936777390714,-3.1730528528743824,-0.0006931169247873784,-0.000000000000001631155370183324,-0.0000000000000006582430310473991,-0.00031057343008057843
0.568561872909699,-1.5085375541316566,-3.2012027074528766,-0.0007086266851009306,-0.0000000000000025078508628986092,-0.0000000000000009756081373045382,-0.00031571213351086616
0.5752508361204013,-1.4901939789711312,-3.227602673155706,-0.0007247853497357937,-0.00000000000000040405148904795045,-0.0000000000000004599732893188186,-0.0003207805184195658
0.5819397993311036,-1.4719755852498766,-3.2520003418399286,-0.0007413017011484161,0.0000000000000029274782956088305,-0.0000000000000007097966397207112,-0.00032566563231170196
0.5886287625418061,-1.4539084851117792,-3.2738364514123703,-0.0007582249069382417,-0.0000000000000012441329613370571,0.0000000000000003821660067175527,-0.00033032291493019815
0.5953177257525084,-1.4358714473766752,-3.2934023418441614,-0.000775584398106619,-0.00000000000000016873918304565766,-0.0000000000000005167916358936094,-0.0003347997804163562
0.6020066889632107,-1.4179229680623555,-3.310512891300808,-0.0007932815940801305,0.0000000000000022469248443327966,-0.0000000000000010712577227621205,-0.0003390887058115513
0.6086956521739131,-1.4000434022746564,-3.325001837565442,-0.0008113233466149043,0.0000000000000026977378369131537,-0.0000000000000005063219771296197,-0.00034319181454656666
0.6153846153846154,-1.3822222546814626,-3.336673474844784,-0.0008297099308628096,-0.00000000000000033553220014910137,0.0000000000000008562338009282201,-0.0003471086597758469
0.6220735785953178,-1.364643889055021,-3.3445114310057242,-0.0008483025829917744,-0.0000000000000014004943687471615,0.00000000000000015725826755128368,-0.0003507671135976721
0.6287625418060201,-1.347358960625239,-3.348204254798793,-0.0008670180262836694,-0.00000000000000011568350266485605,0.0000000000000004820133315451729,-0.0003541595675307454
0.6354515050167224,-1.3302916551983817,-3.3475262502399423,-0.0008858682948849295,0.000000000000000128375458220539,0.00000000000000038196546740225427,-0.00035734322174356154
0.6421404682274248,-1.3134279672274842,-3.3423227029830147,-0.0009048414213618826,-0.0000000000000011557499468501797,0.0000000000000002559089998858324,-0.00036032321772749696
0.6488294314381271,-1.2967771181959642,-3.3322202607374236,-0.0009239186435060882,-0.000000000000003762845674827848,0.0000000000000012316087180117456,-0.0003630814669870643
0.6555183946488294,-1.2805119366868396,-3.314258451998541,-0.0009429608830352643,-0.000000000000001427405842190216,0.00000000000000006590448268329985,-0.00036553047106075326
0.6622073578595318,-1.2645619708653637,-3.2894696339919474,-0.0009619344830180837,-0.0000000000000007022320987420136,-0.0000000000000009342145250995837,-0.00036777909911727
0.6688963210702341,-1.2489381690243913,-3.257581931907164,-0.000980790491275844,-0.00000000000000038869766422576893,-0.0000000000000014172114707966522,-0.00036983612633824083
0.6755852842809364,-1.2338698491990707,-3.213608157002073,-0.0009993059587499603,0.000000000000004958597367144337,-0.0000000000000004483537605223726,-0.0003716029480732083
0.6822742474916388,-1.2194740633234955,-3.156255349866947,-0.001017280845302986,0.000000000000003927725697042933,-0.00000000000000009057864007872092,-0.0003731288304531754
0.6889632107023411,-1.2055518606318516,-3.0892204413942834,-0.0010348360904126612,0.0000000000000007426374828300369,0.00000000000000006362320962602117,-0.00037450341478526114
0.6956521739130435,-1.1928789280612875,-2.995543991136016,-0.0010511198673316881,0.0000000000000017382858502234477,0.0000000000000006377082706576554,-0.0003755563977399412
0.7023411371237458,-1.181479290322169,-2.874545294378913,-0.0010658671852104148,0.0000000000000018985299912986703,0.0000000000000007052007434535985,-0.0003764410081084275
0.7090301003344481,-1.1721619771955791,-2.7088642625105175,-0.0010781018042257302,0.000000000000000692568333911101,-0.00000000000000005577964718826441,-0.00037705026482617393
