# n,energy,berry,bcd_x,bcd_y,qmd_x,qmd_y
0.0000003333333333333333,-3.0781234335656427,0.000000025805155237022862,0,0,0,0
0.006688963210702341,-3.0301783053046982,0.0005330655634927049,0.0000000000000000001485589881582001,0.0000000000000000009921711601767234,0.0000000000000000005759572417850115,0.0000000000000000002346407706430969
0.013377926421404682,-2.9830161073599752,0.001107900533594953,-0.00000000000000000176958976999619,0.0000000000000000030890603229164505,-0.000000000000000000009454908857673841,0.0000000000000000006212800766605004
0.020066889632107024,-2.942883787641659,0.0015626547778439424,-0.0000000000000000033543587816568088,0.000000000000000006977927903243114,-0.0000000000000000009780916411310564,0.0000000000000000017139763535889442
0.026755852842809364,-2.9179745310927037,0.001617678292175925,0.00000000000000000051974668044122625,0.0000000000000000035793783301112884,0.000000000000000002242866443568813,0.0000000000000000001284476164375016
0.033444816053511704,-2.894714971948831,0.0016552320170319214,0.00000000000000000010956964848885196,0.0000000000000000028506416355791397,-0.000000000000000007186083247656323,0.00000000000000000024516120109396743
0.04013377926421405,-2.871647396723636,0.0017147499403256017,0.0000000000000000021754667007668398,0.000000000000000007255469695237449,-0.0000000000000000007103294659118378,-0.000000000000000001883521977260135
0.046822742474916385,-2.8487602963699548,0.0017994285910911633,0.000000000000000002156870827019448,0.000000000000000013072058857968984,-0.0000000000000000007888369237956017,0.0000000000000000007277010826289353
0.05351170568561873,-2.8260936712665137,0.001910512228776946,-0.000000000000000004702042837617635,0.00000000000000001477268760885342,0.0000000000000000015630637951517606,0.0000000000000000019101614794063073
0.06020066889632107,-2.8036014103905385,0.002050175669738062,0.0000000000000000012626483205500352,0.00000000000000001974532597326306,0.000000000000000016061393811909503,0.0000000000000000013383581389811875
0.06688963210702341,-2.7813105127117854,0.0022202206242512915,0.000000000000000008927437253426007,0.000000000000000028570829476184205,0.000000000000000038568804932301846,-0.00000000000000000037814582930103978
0.07357859531772576,-2.759244287450322,0.002425708672268342,0.000000000000000018127481946530716,0.000000000000000010635779999021853,-0.000000000000000007349619495143343,-0.0000000000000000011717591509373195
0.0802675585284281,-2.7373251119954407,0.002665725204467723,-0.00007770744757798292,0.00004029891538357649,0.00009094237546484823,-0.00009152207547964277
0.08695652173913043,-2.715672729094043,0.0029461896026474594,-0.00006762025704128307,0.00003068064631588586,0.00009631962527082405,-0.00006586649449435808
0.09364548494983277,-2.694155140827612,0.0032681521189938715,-0.00007066348200381549,0.00002849535910014627,0.00011106812720328527,-0.00005655765455324964
0.10033444816053512,-2.6728706917689267,0.0036345313677504628,-0.00007811382467534935,0.00002830725369966154,0.00012803500161977314,-0.00005086742106229843
0.10702341137123746,-2.6517769399007807,0.004046502332251316,-0.00008837153779964428,0.000028963236379001134,0.00014509673832738566,-0.000046054277287590096
0.11371237458193979,-2.6308680952017687,0.004509344439924303,-0.00007347523234733867,0.000013454963407320514,0.0001889616658757283,-0.00009218585382927852
0.12040133779264214,-2.6101748084793983,0.005023218669015953,-0.0000345657086508271,-0.000018875221583748615,0.0002468374952953133,-0.00019951973109538144
0.12709030100334448,-2.5896831370807294,0.005598505739354935,-0.00007157730865956913,-0.000009382709454066906,0.00020462629705600072,-0.00019317505675798868
0.13377926421404682,-2.5693688458692865,0.006234177093071191,-0.0000924967557027137,-0.000011437837953253078,0.00017141917518333991,-0.00021230249142701894
0.14046822742474915,-2.54924041194385,0.006939064404738935,-0.00011176531451407028,-0.000017303475824456957,0.00012172880583702237,-0.0002382738842297615
0.14715719063545152,-2.529330776621777,0.007720472540202648,-0.00013153122681312798,-0.000026235139336596875,0.00004392168131648019,-0.0002689799788897712
0.15384615384615385,-2.509654307954032,0.008584378553878466,-0.00015246629679208822,-0.00003826040683946897,-0.00007433315980830534,-0.0003039519903531807
0.1605351170568562,-2.49017473434895,0.009549963681143286,-0.00017483847274951398,-0.000053756579562073834,-0.0002485856325714357,-0.0003434684656919975
0.16722408026755853,-2.4709042134454084,0.010631137500068819,-0.00019856615209705016,-0.00007321769839698834,-0.0004981644663469136,-0.0003880757213337727
0.17391304347826086,-2.45183277439443,0.011841817479034138,-0.00022339978981930037,-0.00009715942856172248,-0.0008475117119592046,-0.0004383822284584858
0.1806020066889632,-2.4329900584887043,0.013201111722423987,-0.00024878605091344265,-0.00012613752221718474,-0.0013258243696929926,-0.0004951708746728432
0.18729096989966554,-2.4143852895186493,0.014771413197608869,-0.0002739578613558058,-0.000160675887838045,-0.0019680350007880852,-0.0005591808555966208
0.1939799331103679,-2.3960005473887707,0.01658427937988336,-0.00029789363132334427,-0.00020134956972509677,-0.002816021992315498,-0.0006311608098715316
0.20066889632107024,-2.3778793296836156,0.018755393033466655,-0.00031871701543073296,-0.0002491862389285752,-0.003947103315700476,-0.0007119325417048627
0.20735785953177258,-2.360045276793113,0.021427704099507578,-0.0003344497535224041,-0.00030391896092935966,-0.005405521943651025,-0.0007994415211766017
0.2140468227424749,-2.3425290386290274,0.024845925721595667,-0.0003429242265767446,-0.00036505289040509773,-0.007235465873013456,-0.0008894462688475398
0.22073578595317725,-2.32535014175638,0.029370989476556936,-0.00034186164743732494,-0.00043179294159447813,-0.009476184235749297,-0.0009741248442508481
0.22742474916387959,-2.3085990209675127,0.035687067760339,-0.00032928226862619434,-0.000502462781538804,-0.012135438421520909,-0.001041072860902797
0.23411371237458195,-2.292441017456519,0.045265709555943646,-0.0003042138272717542,-0.0005745171736141021,-0.015168910392750338,-0.0010751424791233494
0.2408026755852843,-2.2771290022220945,0.06054333709389194,-0.0002659834556514175,-0.0006448805290864565,-0.018508019794562867,-0.0010580488835569511
0.24749163879598662,-2.262490477602476,0.08225421195573414,-0.00021000845656249796,-0.0007101857931183931,-0.022199090578210314,-0.0009314737561754761
0.25418060200668896,-2.2466350894331133,0.09632036646542272,-0.00013321987974285302,-0.0007748949329630144,-0.02649864052870742,-0.00065323523535572
0.2608695652173913,-2.2294487875131006,0.10067397877992838,-0.00002953937570100934,-0.0008323697769460678,-0.03140877594786518,-0.00011014447588442758
0.26755852842809363,-2.211702496624662,0.09747649551277812,0.00009857676220754755,-0.0008691345924985374,-0.03648644128380684,0.0008210675060543539
0.27424749163879597,-2.194010866498581,0.08533255912107057,0.00024290700339531717,-0.0008730868621730372,-0.04116282902919458,0.0022327487825250804
0.2809364548494983,-2.1777749222446854,0.058640836196681034,0.0003838822788263499,-0.0008356434858885949,-0.04459975484591485,0.004085104348211361
0.28762541806020064,-2.1584673259234943,0.03498936604386439,0.0005490889212393987,-0.0007323150643876939,-0.047022524628728024,0.0069873776199571224
0.29431438127090304,-2.1371208963167057,0.009325073980093398,0.0007155322666125069,-0.0005437598027300323,-0.047141931869546044,0.010940268275208428
0.3010033444816054,-2.1187486663371113,-0.02552858375248232,0.0008335780498626852,-0.0003186780762961353,-0.04463683992107818,0.014776116827478303
0.3076923076923077,-2.099981382062114,-0.05389929999941698,0.0009272039155792543,-0.000048909762051102534,-0.03986598730253686,0.01876151624086819
0.31438127090301005,-2.0806177505364767,-0.07536410915794342,0.00259472188858607,-0.0006050001899727076,-0.06108334321238633,0.019089076181112108
0.3210702341137124,-2.0607354769032193,-0.0907857343081735,0.002120631806747905,0.00014657591077026836,-0.06340787526059112,0.01779768201333599
0.3277591973244147,-2.0443657496847445,-0.08972280790061138,0.0017049517005074022,0.0006663183103206346,-0.06432095795985811,0.015694377260952987
0.33444816053511706,-2.0295979600622815,-0.08420355876008673,0.0016033413475068782,0.0009229932811821663,-0.0629289688007776,0.018571808359635553
0.3411371237458194,-2.015254674820627,-0.08008112849707663,0.0014337223102730199,0.0012120443438763352,-0.05367656504227817,0.029167101844786013
0.34782608695652173,-2.001291914871264,-0.079144964138187,0.0015222046060350623,0.001154017666553923,-0.042607164703510864,0.035506681488727876
0.35451505016722407,-1.9875652226094698,-0.07998725719139817,0.0014876091948173027,0.0010364724087379917,-0.02740872300185812,0.04374780859713299
0.3612040133779264,-1.9740577326978361,-0.0824606554707567,0.0013504982582201834,0.0008660816344485259,-0.00819591878879589,0.05386052191990281
0.36789297658862874,-1.9609632578158567,-0.08783579452420545,0.0011197127481985224,0.0006165840818144891,0.02010477254185687,0.06839469836643045
0.3745819397993311,-1.9481791927397754,-0.0955735318671887,0.0009519797684251029,0.0005433216322543844,0.057383699861631235,0.0877267431951272
0.38127090301003347,-1.9356422029787175,-0.10519181455883055,0.0008344343905833018,0.0006103361416780009,0.1018089880347476,0.11087772292677867
0.3879598662207358,-1.9232909365180118,-0.10119300239311142,0.0009398391090880938,0.0006319676077479097,0.12329430350720416,0.11934303525775299
0.39464882943143814,-1.911289777077285,-0.09808162871449769,0.0010161281508296106,0.0006192687878541891,0.14138736492254894,0.12638439822662084
0.4013377926421405,-1.8999743347410645,-0.09796885794367853,0.0010140616804733581,0.0005417620243408916,0.15472786631773083,0.1318831989060202
0.4080267558528428,-1.8910456765850947,-0.13531875998285123,0.0010128970343198768,0.0004735455809170497,0.16603342097261153,0.13647757330640745
0.41471571906354515,-1.8839886316304169,-0.20204527410410478,0.0010124395598064275,0.00041261420577358703,0.17574325817025893,0.14036273563081345
0.4214046822742475,-1.8769315866757392,-0.2687717882253583,0.0010119820852929782,0.00035168283063012433,0.18545309536790633,0.14424789795521942
0.4280936454849498,-1.869491573715604,-0.32701740604010837,0.0010143201981658468,0.0002799099771618514,0.19704550226580722,0.14888973272947173
0.43478260869565216,-1.861901846252606,-0.3819475688918764,0.0010177511960050498,0.0002038988413447552,0.2093738661699362,0.15382737508567396
0.4414715719063545,-1.8541899899363503,-0.4341648822339662,0.0010219300721872034,0.00012603423590782712,0.22213444888870398,0.15895677196909114
0.44816053511705684,-1.8450106398283224,-0.45378474045169037,0.001035095414679354,0.000025898438301448834,0.24008854984865322,0.16639028103178122
0.45484949832775917,-1.8358312897202944,-0.47340459866941453,0.0010482607571715048,-0.00007423735930492945,0.25804265080860245,0.17382379009447133
0.46153846153846156,-1.8261825809629895,-0.47353749840787673,0.0010807706517743224,-0.00017585288183471305,0.2808769216691739,0.18391282323459676
0.4682274247491639,-1.8164771974056972,-0.471317358576532,0.0011156163904558875,-0.0002776470803390409,0.30430047037398983,0.19432250945351992
0.47491638795986624,-1.8066939079426785,-0.45279035043295723,0.0011976550419860758,-0.000345757737828196,0.33198334262125717,0.20830370597091122
0.4816053511705686,-1.7968942181926466,-0.4308305175489583,0.0012896284642949017,-0.00040677753699139936,0.3605628622783177,0.2230367555528217
0.4882943143812709,-1.7874095522155704,-0.3923179328781678,0.0015329329436380517,-0.0003170329054549707,0.3790574788096935,0.24125082754691693
0.49498327759197325,-1.7780138353863775,-0.34913156389977523,0.0018189667968478622,-0.0001847188909286533,0.39470455297593077,0.2604477903699233
0.5016722408026756,-1.7696004787801534,-0.2869554569850199,0.00237691742034355,0.000359207369033244,0.40572078270043743,0.5270142100013908
0.5083612040133779,-1.7617264985363283,-0.21435281250131305,0.00308416712476993,0.0011291341433390788,0.41419439315818635,0.9294017211859816
0.5150501672240803,-1.753895669162421,-0.13808692883318968,0.0036597725797287,0.0019148802438545833,0.3846467850281756,1.1557208806391965
0.5217391304347826,-1.7464583520622985,-0.028414312377834858,0.0030348546608252175,0.0028448899255767417,0.00836651062578031,-0.2236067884302697
0.5284280936454849,-1.739021034962176,0.08125830407751997,0.0024099367419217347,0.0037748996072989004,-0.3679137637766149,-1.602934457499736
0.5351170568561873,-1.7304684980245382,0.15563576177425412,0.0022546451404076304,0.004595028580121349,-0.5784497962607534,-2.008793992303475
0.5418060200668896,-1.7202608762861293,0.1776320845260188,0.002796320498954974,0.005252084869800847,-0.5430067254450278,-0.9699407818175738
0.5484949832775919,-1.7095208984801171,0.20291735927006238,0.0035321578867260495,0.005967379907247153,-0.5314187236896175,-0.38339651189067986
0.5551839464882943,-1.6980980112368929,0.2324217206193827,0.0045170674466280415,0.0067573839465845985,-0.5504321422579476,-0.37707676243091953
0.5618729096989966,-1.685920284245196,0.2634321749435837,0.005353595111909243,0.007223440682243542,-0.5388873272502919,-0.3664343593117123
0.568561872909699,-1.6733227905832246,0.295064446517832,0.0061216297326898315,0.007517781405424283,-0.5129557560704939,-0.3539425500178124
0.5752508361204013,-1.6599562481364325,0.3258163456014644,0.006895455482356395,0.007576456889290052,-0.4850703439928243,-0.34325300309833645
0.5819397993311036,-1.6460811372215005,0.3562303208793307,0.00770834631240637,0.007500550802269458,-0.45801537323788094,-0.3335785936459149
0.5886287625418061,-1.6317150624228123,0.3862567598098572,0.008563271214148854,0.007282848752919537,-0.4317847263995283,-0.324799874155891
0.5953177257525084,-1.6167523479988557,0.41559496491420134,0.009484592272195702,0.006850752130589745,-0.40663602991056,-0.3168108473369938
0.6020066889632107,-1.6011904178979472,0.44450072829454224,0.01045224724127272,0.006164288731513447,-0.3814696385400834,-0.30862597054936086
0.6086956521739131,-1.5850758401957064,0.47304430576457485,0.01142327858065013,0.005218610272639546,-0.3557213800258315,-0.29971280384727655
0.6153846153846154,-1.5683938619464564,0.5011992215030902,0.012338768942734437,0.0039595266234420945,-0.3290166284725785,-0.28954612256847584
0.6220735785953178,-1.551163387837735,0.528747609120934,0.013098226675091341,0.002336003366358911,-0.30103399796483477,-0.27751196757155433
0.6287625418060201,-1.5333667006129053,0.553549008009288,0.013546838139101725,0.000331260269160436,-0.2697066283473606,-0.26224597648744974
0.6354515050167224,-1.515974279098818,0.5453699299358764,0.01330865994703967,-0.0015342853684070276,-0.194576605175304,-0.2282169862348409
0.6421404682274248,-1.4983769760442502,0.5274311843575964,0.011735717817324385,-0.004394604011238645,-0.1317700938048176,-0.19484571281691007
0.6488294314381271,-1.48042206319322,0.5006702102918119,0.008971746468014657,-0.007586596098224941,-0.07931790308746273,-0.164704899454503
0.6555183946488294,-1.4621244013566512,0.46235300712863064,0.003861051738432021,-0.010226012755914936,-0.03496564694594202,-0.14117923050454054
0.6622073578595318,-1.4434612100193633,0.4080388730437865,0.0011826749344328162,-0.014384428886551249,0.0014507233905214946,-0.10667016497653387
0.6688963210702341,-1.4244308640804837,0.3297984395504457,0.003180371735110827,-0.019822618464796344,0.025909142564181926,-0.08060983816538181
0.6755852842809364,-1.4050405253872826,0.212768808152916,0.0030810522518301235,-0.022757747524120263,0.023594028840956245,-0.06851422737911868
0.6822742474916388,-1.3849916357713508,0.06314778662704358,-0.0001670678418646843,-0.022568292494479163,0.018064392965019792,-0.04943747695267892
0.6889632107023411,-1.3625258539350416,0.10406791096286372,-0.0010399897900689901,-0.021597932469715704,0.03845156675671187,-0.0330578251279507
0.6956521739130435,-1.3382162135135114,0.417186152500545,-0.002078890222537149,-0.019902573055076297,0.05180590154806843,-0.019042852497595172
0.7023411371237458,-1.3147420630933226,0.8058250234622327,-0.0030292727256187725,-0.017842688569942766,0.05704402625732205,-0.009227147505905423
0.7090301003344481,-1.2923847821404386,1.3100489044859531,-0.003776478320491464,-0.01568933726305147,0.056442595603522064,-0.0030062532966350828
0.7157190635451505,-1.2698930240120092,1.862564614328652,-0.004302354026819406,-0.01350867828156012,0.052243042311982145,0.0008513092068171571
0.7224080267558528,-1.246202458982699,2.17169884813032,-0.00461495843626569,-0.01132047685089604,0.04586174337838664,0.0031595124567463054
0.7290969899665551,-1.2212869467686056,2.2100772704328495,-0.004703180847146597,-0.009214985717262935,0.03837880167629486,0.004320259022886546
0.7357859531772575,-1.1966327104040015,2.152847727595246,-0.004590884716591278,-0.007365177234791248,0.03110678662727838,0.004691187829032165
0.7424749163879598,-1.1727415636937122,2.0228676265817844,-0.004335133280580827,-0.0058088851730550084,0.02470375480177222,0.004631368163192041
0.7491638795986622,-1.1504878672530845,1.792133867962511,-0.0039998952546581885,-0.004578285415033006,0.019593019003704658,0.004387695609087715
0.7558528428093646,-1.130321700004223,1.4442776644956887,-0.0036510889654896733,-0.0036115081703533766,0.01562688114505172,0.004118923161279085
0.7625418060200669,-1.1084545790165972,1.283202698552871,-0.003243472331235451,-0.002715264771827275,0.01204591841461715,0.0038259766212917
0.7692307692307693,-1.0855136519693709,1.2072482756021032,-0.0028036784826741207,-0.0019208170141595186,0.008992196533532663,0.0035497941558560917
0.7759197324414716,-1.0618949440371648,1.1666607508015332,-0.002351988536934283,-0.001235981455364371,0.0064813631904686204,0.003313777026267553
0.782608695652174,-1.0376978924774383,1.1444682170427027,-0.0019008425731133678,-0.0006531521395395526,0.004457027323114559,0.0031277736482966862
0.7892976588628763,-1.013045278536724,1.1326888446315364,-0.0014601410892510454,-0.00016435014693806947,0.0028533131560664958,0.002994802070584635
0.7959866220735786,-0.9878711695962487,1.1280799672634854,-0.001037436179791906,0.00022977311564905325,0.0016383750977623864,0.0029209257916359634
0.802675585284281,-0.962289188104262,1.1272242697766353,-0.0006337669581939177,0.0005500045155126121,0.0006929251716514344,0.0028960272098150453
0.8093645484949833,-0.9362975452819746,1.1290670544563275,-0.0002494172349492527,0.0008045745627693767,-0.0000444985651517163,0.0029160941887479155
0.8160535117056856,-0.9099437632585452,1.1325728961636294,0.0001145775203763351,0.000994153957260274,-0.0006106682594060888,0.0029819054909344753
0.822742474916388,-0.8830961798283207,1.1377027701258526,0.00046205465423480906,0.0011212448307100413,-0.0010487118519388475,0.003094976870969031
0.8294314381270903,-0.8559365087022158,1.1436832161862835,0.0007977049745073538,0.0011922907476961265,-0.0014046589884996088,0.0032509165942659554
0.8361204013377926,-0.8283702964855076,1.1502790418371278,0.0011293786332922681,0.0012013411992527645,-0.0016999768841180593,0.0034598703152777005
0.842809364548495,-0.8003747915763785,1.1572180063896265,0.0014707609007146372,0.0011410412611123457,-0.001959651268738444,0.0037327728206947653
0.8494983277591973,-0.7720551805741795,1.1645958010547588,0.0018402967933681589,0.0010072783062725964,-0.0022049472925008435,0.00408000664292138
0.8561872909698997,-0.7432895787392748,1.172109688863966,0.00229941346679557,0.0007533267514269913,-0.002455188139262972,0.004566189927181326
0.862876254180602,-0.7141997017970219,1.179833151168543,0.0029254958122154257,0.00034725943743266744,-0.0027304596443655663,0.005245135828268739
0.8695652173913043,-0.6846780155205113,1.1876651518357064,0.00410913577319939,-0.0004298345227772007,-0.0030872003238583434,0.006446535814742064
0.8762541806020067,-0.6547629621226626,1.195499947340459,0.007254465505468081,-0.0023634298884042705,-0.003706063864599216,0.00927520703149609
