# n,energy,berry,bcd_x,bcd_y,qmd_x,qmd_y
0.0000015,-3.01039427734084,-0.000000000000001686844640266379,0,0,0,0
0.006688963210702341,-2.9863462971153893,-0.00000014441843751580843,-0.00000000000000000000856222696856999,-0.0000000000000000000010134804956231557,0.0000000000000000000004420789552287253,-0.000000000000000000006835944531444599
0.013377926421404682,-2.962581853224792,-0.0000009644915796765444,-0.000000000000000000024572913561586953,0.000000000000000000005958001162438009,0.000000000000000000010278991731275881,0.00000000000000000000825535722139011
0.020066889632107024,-2.938946798387125,-0.0000031976623511167713,0.00000000000000000005344053523519065,-0.00000000000000000006820299771343491,0.000000000000000000002078741819005928,0.00000000000000000005612074248175145
0.026755852842809364,-2.9156032204050533,-0.000007688924933965239,0.00000000000000000015982625674084405,0.0000000000000000000031191812752136755,-0.00000000000000000006610250732311287,-0.00000000000000000016753050932159724
0.033444816053511704,-2.8924762826499375,-0.000015559213953095446,-0.00000000000000000010070906042797442,-0.0000000000000000003605295289553787,0.0000000000000000003104368077654554,-0.00000000000000000019006411160485279
0.04013377926421405,-2.869701365817006,-0.000028249190372589993,0.0000000000000000006492837692189746,0.00000000000000000013578402816499956,0.000000000000000000032345001327344394,-0.00000000000000000018726365948326875
0.046822742474916385,-2.8470062815450428,-0.000047527980747728825,0.00000000000000000018387745807232017,0.0000000000000000005131512441104895,0.00000000000000000032264678962871865,-0.000000000000000000012245192157871164
0.05351170568561873,-2.8246077960850946,-0.0000746913337326777,-0.0000000000000000009469786777022834,0.00000000000000000085001574194699,0.0000000000000000013758982769569508,-0.00000000000000000019447604480238336
0.06020066889632107,-2.8023786406593385,-0.00011176497045213834,-0.000000000000000001801718988642251,0.00000000000000000009378860711773454,0.0000000000000000020038102617926116,-0.00000000000000000018768904952019405
0.06688963210702341,-2.780464035770271,-0.00016169939057486332,-0.0000000000000000005712581083507567,0.0000000000000000005716570816832184,-0.0000000000000000003980789858470816,-0.0000000000000000006924478375696173
0.07357859531772576,-2.7587470958732445,-0.00022703306617366168,0.00000000000000000008012411022595088,-0.0000000000000000004716597749499297,0.0000000000000000007405407575902522,0.0000000000000000005458323808053709
0.0802675585284281,-2.737305198175208,-0.00030799532210171735,-0.0000000000000000014521229000764381,0.0000000000000000058780835509781884,0.000000000000000001098283314794971,-0.0000000000000000024366636831661128
0.08695652173913043,-2.716044483517173,-0.00041314776586190086,-0.0000000000000000032865496747791435,-0.000000000000000011111241061391279,-0.0000000000000000011799502506429943,0.00000000000000000383297890764795
0.09364548494983277,-2.695043710009584,-0.0005446493327338846,0.000000000000000011220188331189355,0.0000000000000000041709995426119726,0.0000000000000000029558225590987903,0.0000000000000000012904159103171855
0.10033444816053512,-2.674268402208709,-0.0007093158848841204,-0.000000000000000003947016270628309,0.0000000000000000031608639956464933,0.000000000000000005509147792708433,0.000000000000000002755561951513344
0.10702341137123746,-2.6536679079297016,-0.0009136487827471988,0.000000000000000001723314972557027,0.0000000000000000015264711531926118,0.000000000000000007435892456576754,0.0000000000000000032080110995329703
0.11371237458193979,-2.6333762675321397,-0.0011636675892224221,-0.00000000000000001020847377463309,0.000000000000000012709814914271529,-0.00000000000000000522320990713636,0.000000000000000018702359540206922
0.12040133779264214,-2.6132908015591334,-0.0014597820333532656,-0.000000000000000008628658795522906,0.000000000000000002384256449230934,-0.000000000000000003835928093408743,0.000000000000000006243740584547869
0.12709030100334448,-2.593458527265864,-0.0018187460300896985,-0.000000000000000009291684280381667,-0.000000000000000010632646629033719,-0.0000000000000000019727427691673654,-0.000000000000000013250538015291078
0.13377926421404682,-2.5738915970306326,-0.0022533743130015685,0.000000000000000009261575814431895,-0.000000000000000016027714522713813,0.0000000000000000011531455310171131,-0.000000000000000013511355930155328
0.14046822742474915,-2.55450847348415,-0.002760768826632901,0.000000000000000020642516471253147,0.000000000000000011635249511275498,0.000000000000000008176868655335774,-0.000000000000000004291790265677826
0.14715719063545152,-2.5353966413227695,-0.0033784242985246877,-0.000000000000000010204256958731742,0.0000000000000000519416223745288,-0.0000000000000000013701331135755426,0.000000000000000021010114319632915
0.15384615384615385,-2.516471691825925,-0.004110129563142587,-0.00000000000000004097219041962409,0.000000000000000010932874695035022,0.000000000000000027969198421102045,0.000000000000000011224102723156675
0.1605351170568562,-2.497782032792676,-0.004967883918905639,-0.00000000000000006840872457807981,0.00000000000000003511537202599646,0.000000000000000023266429856879002,0.000000000000000020587717759057204
0.16722408026755853,-2.47938461669824,-0.00598257714549563,-0.000000000000000019655930028420894,-0.000000000000000007380344308782768,0.000000000000000028426213299683064,0.000000000000000008205260554495632
0.17391304347826086,-2.4613154890245452,-0.007166602046777097,0.000000000000000018501797234655685,-0.000000000000000028822872901575246,-0.0000000000000000003851359222146298,0.000000000000000015753185140219197
0.1806020066889632,-2.443346331921986,-0.008635559383958618,-0.000000000000000022142047365935562,-0.00000000000000013129567053125056,-0.00000000000000006413221744108996,0.00000000000000002737256116327348
0.18729096989966554,-2.425762757099037,-0.010321725181252715,0.000000000000000024532213355617517,0.000000000000000007725811785696133,-0.00000000000000003268261596242035,-0.000000000000000006698661868670738
0.1939799331103679,-2.4085335864125526,-0.012310980370716625,-0.00000000000000006012248409473488,0.00000000000000012651945064149879,-0.000000000000000018291002314231323,0.000000000000000050047005017770107
0.20066889632107024,-2.3914791730090803,-0.014715680408917492,-0.000000000000000016145986048400996,0.00000000000000011972669778450616,-0.000000000000000038999438954103734,-0.000000000000000009056826693940877
0.20735785953177258,-2.3746772524716278,-0.017550528996637102,-0.00000000000000004490736644001372,0.00000000000000002626558876990742,-0.00000000000000001390999025882722,-0.000000000000000018564453194712488
0.2140468227424749,-2.3582547709568202,-0.020885414017727776,-0.0003833846774979172,-0.00000000000000002920709645969464,0.000000000000000026601517345929602,-0.00012996699438595094
0.22073578595317725,-2.342348694670044,-0.02571832563853614,-0.0014599423913579238,0.00000000000000005286392762723814,-0.000000000000000037990590315356626,-0.000503154263101368
0.22742474916387959,-2.327898965429418,-0.0405085132963935,-0.0007901427934694824,0.00000000000000010019467228214867,-0.00000000000000007626708334245277,-0.0003714327415495746
0.23411371237458195,-2.3158109611661675,-0.0744450017598497,-0.0004350429126524811,0.00000000000000011098380739176914,-0.000000000000000053715173939165296,-0.0004344950650787162
0.2408026755852843,-2.3046002730568635,-0.11549381665672867,-0.0001968453587676598,0.00000000000000010819873523662182,-0.000000000000000008567178801029525,-0.0005699142529567026
0.24749163879598662,-2.294176482314721,-0.1582793897419221,-0.000004285386422778464,-0.00000000000000007259262949341644,0.000000000000000004812896472132243,-0.0007135177290324706
0.25418060200668896,-2.283855245829397,-0.20139366659311658,0.00018533786433236137,-0.00000000000000023311040111844747,0.00000000000000001401566496094062,-0.0008570603238648698
0.2608695652173913,-2.274352412194639,-0.24728484370371215,0.0003560493855030234,-0.00000000000000016652767589629143,-0.000000000000000010172989892861557,-0.000998423093355438
0.26755852842809363,-2.2649097281440373,-0.2934219280648375,0.0005257590230985168,-0.00000000000000010488554887603308,-0.0000000000000000383335957073935,-0.0011390913209243963
0.27424749163879597,-2.257308947860648,-0.34708919733884996,0.0006647889285350369,-0.00000000000000019453468293251463,-0.00000000000000018812349522829467,-0.0012584912488063467
0.2809364548494983,-2.249708167577258,-0.4007564666128624,0.0008038188339715569,-0.00000000000000028418381698899624,-0.00000000000000033791339474919586,-0.001377891176688297
0.28762541806020064,-2.2415203607032907,-0.4517155328959783,0.0009558497521495756,-0.0000000000000002246595717695227,-0.0000000000000003251015757256406,-0.0015095591805749278
0.29431438127090304,-2.2326191313963513,-0.4993832784829608,0.001123681000823734,0.00000000000000001615737276886192,-0.00000000000000011467739039451422,-0.0016561367656826413
0.3010033444816054,-2.2233517761829615,-0.5454703307039207,0.0013003987594141413,0.00000000000000020923439608789214,0.00000000000000010733619455582674,-0.0018106640734809147
0.3076923076923077,-2.2129751058055676,-0.5867680820595773,0.0015040415184798322,0.0000000000000002576654995086647,0.00000000000000036446419373587756,-0.0019892780350092764
0.31438127090301005,-2.202296110919049,-0.6265879436525804,0.001716264382696277,0.0000000000000002148643655591133,0.0000000000000004944317633751196,-0.002175729554631459
0.3210702341137124,-2.1910753541907093,-0.6637594447731069,0.001943862690944589,0.000000000000000008576172308634949,0.0000000000000003965293904995919,-0.002376225882994416
0.3277591973244147,-2.179431974099407,-0.6991486107895467,0.002186636303274091,-0.0000000000000004155898022052463,0.00000000000000028622653345792933,-0.002589491994445532
0.33444816053511706,-2.1675188045120644,-0.7333999899923682,0.002439097353637348,-0.0000000000000009788421168431137,0.0000000000000001680075963624314,-0.0028109099347963656
0.3411371237458194,-2.1551213440018584,-0.7650695241191964,0.0027111059004128633,-0.00000000000000025583221199364897,0.0000000000000006906784295619781,-0.003048539827224144
0.34782608695652173,-2.142555568677168,-0.7957303728242523,0.002991105053491269,0.00000000000000039651611155978123,0.0000000000000008338954932603803,-0.003292457043967185
0.35451505016722407,-2.129749216657739,-0.8249304073295676,0.0032827303800259788,0.0000000000000008591984421435695,0.00000000000000033161055701188046,-0.0035454727145856233
0.3612040133779264,-2.1167275214691688,-0.8518320864871213,0.003587345850532852,0.0000000000000010915081571269865,0.00000000000000018062618080850875,-0.003808480303898417
0.36789297658862874,-2.1035622052547125,-0.8777060724401278,0.003900297636034259,0.0000000000000010200432149061217,-0.0000000000000002272413350083586,-0.004077484784939344
0.3745819397993311,-2.0902001612607197,-0.9024131331722818,0.0042245122399693896,0.0000000000000004609210927968383,-0.0000000000000012210884787338571,-0.004354385661697447
0.38127090301003347,-2.0765819291088894,-0.9247855761192669,0.004562640508045686,0.00000000000000073552286813316505,-0.000000000000000367578721785775,-0.004640962158178683
0.3879598662207358,-2.062844941167581,-0.9457261872866497,0.004908175558483765,0.0000000000000006393109915888094,0.00000000000000032914432223225466,-0.0049321165491148684
0.39464882943143814,-2.0489977810363262,-0.9652085017534908,0.005260934427200824,-0.000000000000000039721198278376255,0.0000000000000005188533952610029,-0.005227521539165614
0.4013377926421405,-2.0349893591332857,-0.9825196932685392,0.00562426391610408,-0.0000000000000003452451444364456,0.0000000000000003202013595488981,-0.005528212802544814
0.4080267558528428,-2.0209596730564723,-0.9979763433591468,0.005991099429566223,-0.0000000000000007169719904255184,-0.000000000000000041445706987451084,-0.005829298149004456
0.41471571906354515,-2.0069080031335953,-1.0115521848782427,0.00636091764046616,-0.0000000000000008744110207108568,-0.00000000000000023915656494052186,-0.006130207472438354
0.4214046822742475,-1.9928251403412154,-1.0225272878077887,0.006733772982590482,-0.00000000000000020151070157283252,0.00000000000000041457197315067396,-0.006429780993507111
0.4280936454849498,-1.9787231740546003,-1.0305089819807127,0.007108109216244892,0.0000000000000005114070318333541,0.0000000000000012414115897283651,-0.006725935970681906
0.43478260869565216,-1.9645450029945914,-1.035840010721667,0.00748389623694958,0.0000000000000013605936478459088,0.0000000000000010969668455502389,-0.007019514826416247
0.4414715719063545,-1.9503003675513377,-1.0382653172016099,0.007860128541021486,0.0000000000000021273356159185346,-0.00000000000000018203294703279112,-0.007309411794819159
0.44816053511705684,-1.936323289408349,-1.0362601461563126,0.008224429051960956,-0.00000000000000001420615325081946,-0.0000000000000003773332112065433,-0.0075831516065625795
0.45484949832775917,-1.9224795758290858,-1.029613697354295,0.008580730500474061,-0.0000000000000003128454704950576,0.0000000000000004736318873213915,-0.007845107877668183
0.46153846153846156,-1.9087624158446066,-1.0185859810228053,0.008928931257453141,0.00000000000000041658763181130985,0.0000000000000015857816285869285,-0.008095698827614153
0.4682274247491639,-1.895230839496056,-1.0011687777468885,0.009264467080403236,0.0000000000000015435774916989194,0.000000000000001954048348787006,-0.00832934044491287
0.47491638795986624,-1.8820478971834267,-0.9745283789220607,0.009582108532538897,0.0000000000000018599233975013717,0.0000000000000011602011014900626,-0.008540931262674642
0.4816053511705686,-1.8691760106233957,-0.9403378735079205,0.009884918052807378,0.0000000000000013742794952044751,0.000000000000000876282138633584,-0.008735859138081501
0.4882943143812709,-1.8568201787583658,-0.8940589286405001,0.010163851286899646,-0.0000000000000004926279398771644,0.0000000000000024350893949462163,-0.008905082790303425
0.49498327759197325,-1.8454958776047445,-0.8220140141384018,0.010409792686960965,0.0000000000000005134623271286341,0.0000000000000017792203259647186,-0.00904319450132983
0.5016722408026756,-1.834581790753293,-0.7397226095061363,0.01064261404898113,0.0000000000000026620728647013915,0.00000000000000024262914831086294,-0.009168933761293449
0.5083612040133779,-1.826764759874179,-0.5725839942685426,0.01079832853742894,0.0000000000000009312899291056737,0.000000000000000718286354792723,-0.00924021068335181
0.5150501672240803,-1.8192223210694631,-0.39792263104863285,0.01094720655390023,-0.000000000000001143448915172035,0.0000000000000013723541108221593,-0.009306658849819195
0.5217391304347826,-1.8105333614824408,-0.2449170546958237,0.011113354050536829,-0.0000000000000018121080576593733,0.0000000000000009143658823407801,-0.009372455102916859
0.5284280936454849,-1.7993898117958098,-0.13827442340563043,0.011316473833845705,0.0000000000000005295134406737258,-0.000000000000001924426647218909,-0.009436855672545184
0.5351170568561873,-1.7873458092931431,-0.044426515812406774,0.01152588073805024,-0.0000000000000001897329449474722,-0.0000000000000018347491490691728,-0.009481417763402118
0.5418060200668896,-1.7745720925048516,0.03902707586486314,0.01174034927611068,-0.000000000000003230858733448301,0.0000000000000004820014584524888,-0.00950922954579571
0.5484949832775919,-1.7609689539233178,0.10949981953586554,0.011959054339476539,-0.0000000000000017001795857963914,-0.0000000000000013130909683162585,-0.009487382404312109
0.5551839464882943,-1.7468721531582336,0.17556150690098096,0.012192666981447614,-0.0000000000000005386573048456482,-0.000000000000001843541649454464,-0.00942960371349744
0.5618729096989966,-1.732291416868958,0.23707383045946148,0.012454726671191955,0.0000000000000005454409581457312,-0.0000000000000016137146734341094,-0.009330827114399531
0.568561872909699,-1.7172725987441633,0.2938851466091381,0.012778328296601724,0.0000000000000022954260687621256,-0.000000000000001936108756443502,-0.009179997464550711
0.5752508361204013,-1.7015137520769512,0.34699795169230224,0.013345558394980113,0.0000000000000039277249514246715,-0.0000000000000004702154231539123,-0.008981138147281494
0.5819397993311036,-1.6853183774373002,0.3974789143124077,0.014595609081044014,0.0000000000000036862128987943246,-0.000000000000000017417539491715293,-0.008842387439175528
0.5886287625418061,-1.668786753881332,0.4454466081573803,0.021366001122441948,0.000000000000001418380482191011,-0.00000000000000041654083708107217,-0.010154950122912634
0.5953177257525084,-1.6519210460366587,0.4912034121124664,0.021617841910648652,-0.000000000000001534646126506373,-0.00000000000000039837249146281036,-0.009070231609758807
0.6020066889632107,-1.6346269410250391,0.535169334252634,-0.001185361417670572,-0.000000000000003222308468808168,0.0000000000000006098575807947007,-0.0007194889496033168
0.6086956521739131,-1.6169734458675324,0.5776968098251682,-0.0012118808314463653,-0.000000000000004814784280510538,-0.0000000000000015335449768697932,-0.0007235348876549965
0.6153846153846154,-1.5986966270711518,0.6185628479611928,-0.0012395889666947468,-0.0000000000000058797521134236656,0.0000000000000002413340509245146,-0.0007270783401524842
0.6220735785953178,-1.5801767024428093,0.6581909776707471,-0.0012678672526412213,0.000000000000000868740743643772,0.0000000000000016917984228909949,-0.0007299518312121546
0.6287625418060201,-1.5614172669169308,0.695813831972426,-0.0012966839116205777,-0.0000000000000015747178024922243,-0.000000000000001568523564073859,-0.0007321538962045857
0.6354515050167224,-1.542246575390506,0.7327686289427946,-0.00132628687791663,-0.000000000000005055141479613873,-0.0000000000000022316991765180726,-0.0007336576136500508
0.6421404682274248,-1.5226127862366792,0.7693377302353105,-0.0013567390667568928,-0.000000000000005472564113762206,0.0000000000000031770739441439244,-0.0007344034047314102
0.6488294314381271,-1.5025596800802794,0.8053125800060814,-0.001387950004161544,-0.0000000000000024076114785810453,-0.0000000000000005732984388654543,-0.0007343230795802964
0.6555183946488294,-1.4824833198208884,0.8386117688181857,-0.001419272272418586,0.000000000000004785734639765228,0.0000000000000013875357378422024,-0.0007333734275309649
0.6622073578595318,-1.461933463492601,0.8723181720914245,-0.0014513712832295493,-0.0000000000000008259046145151608,-0.00000000000000024634376205728346,-0.0007314984032976956
0.6688963210702341,-1.4408283609241284,0.9056202123425441,-0.0014843317421998328,-0.0000000000000008327109123022955,-0.000000000000001858557385433684,-0.000728587895816721
0.6755852842809364,-1.4195673895725787,0.9381174670275029,-0.0015174639584731048,-0.00000000000000024092184722143067,0.0000000000000004986730617517344,-0.0007246079203960423
0.6822742474916388,-1.3979757703282378,0.9692714059118318,-0.0015510187034037648,0.000000000000002560248302445152,0.0000000000000004761341787677106,-0.00071953778610754
0.6889632107023411,-1.3761614414056569,0.9999410220667995,-0.0015847399586416428,0.0000000000000019472046691891868,0.0000000000000033217326747837562,-0.0007133500568067052
0.6956521739130435,-1.3537655334874066,1.0307917608185648,-0.0016191045460583807,0.000000000000001488917029148126,0.0000000000000007701556388116622,-0.0007058805677945591
0.7023411371237458,-1.3311868787835854,1.060655204679784,-0.00165341462371533,-0.0000000000000010972566374335464,-0.0000000000000029830203398435133,-0.0006972091481175663
0.7090301003344481,-1.3083733850404142,1.0902003611771613,-0.0016876604131816396,-0.0000000000000035785942412467935,-0.0000000000000011265506083830815,-0.0006872865514396044
0.7157190635451505,-1.2854173533149478,1.1183247726790522,-0.001721646630424509,-0.0000000000000020484806607756494,0.0000000000000025689936299215234,-0.0006761412959524515
0.7224080267558528,-1.261695901517215,1.1460539880873186,-0.00175602853535108,0.00000000000000008634466084988599,-0.00000000000000036924374188900157,-0.0006632537692587546
