# n,energy,berry,bcd_x,bcd_y,qmd_x,qmd_y
0.00000022222222222222224,-3.099435993363244,0.000000017389789836035963,0,0,0,0
0.006666666666666667,-3.0517505033615815,0.000543330697171072,0.000000005277717764370969,-0.0000000011482511520146495,-0.0000000002724854100257665,0.0000000031285414917303715
0.013333333333333334,-3.0047212874462756,0.0011396646758320339,0.00000000801652700161646,-0.0000000032447948310388745,-0.000000001494406719112436,0.000000005342159509351284
0.02,-2.9583309317482978,0.0018091554565886115,0.000000014329562073924093,-0.000000004694406650430464,-0.0000000027541261310486646,0.00000001201274375051594
0.02666666666666667,-2.924043910955356,0.002204876079918992,0.0000000210564883509033,-0.000000007349767213450122,-0.000000004615938291346144,0.00000001868388206437435
0.03333333333333333,-2.90038308883749,0.002299745133571636,0.000000028268839214023102,-0.000000009670495772257925,-0.000000005658030362955308,0.000000024129955281324107
0.04,-2.877305197001236,0.0024029331691081918,0.00000003351529607022286,-0.000000014377104879838224,-0.00000001185660037238091,0.00000002299957177731039
0.04666666666666667,-2.8544213502475055,0.0025328865555549933,0.00000004595470874198753,-0.000000014359563890018517,-0.000000010660121641644651,0.00000003635715785988194
0.05333333333333334,-2.831713499119113,0.002688754951418437,0.00000005493707912529757,-0.00000001787314294232707,-0.000000011537606049663954,0.000000043555059048186775
0.06,-2.809151363864556,0.0028726156891050025,0.00000006575063502003421,-0.000000020520008456385773,-0.000000014387519242239288,0.0000000535206758973213
0.06666666666666667,-2.786772599795651,0.0030851233954545527,0.00000007629487208125838,-0.000000025222221828688775,-0.00000001992302499777637,0.00000005941502183939861
0.07333333333333333,-2.7645935163394424,0.003331384003040533,-0.00011576695012572178,-0.00002910512994705604,0.000020907464538425726,-0.00016079370578679015
0.08,-2.7425440998992094,0.0036102024648824007,-0.00016127492562494216,-0.00004547469266090352,0.000050707197487470144,-0.00022365022567004197
0.08666666666666667,-2.7206726176358003,0.003926490952189209,-0.0001387584199958002,-0.00004718989419197133,0.00007129936294603825,-0.00018938149835002533
0.09333333333333334,-2.6990058647005686,0.0042846901539133585,-0.00014099550005428784,-0.000054815156215288626,0.00008900791025458291,-0.00018554111305809512
0.1,-2.677508336134639,0.004683506857661774,-0.00015012529095804396,-0.00006458061520620425,0.00010444564493209774,-0.00018667301736450796
0.10666666666666667,-2.656155395965446,0.005127793076002909,-0.0001631414961643391,-0.00007610493963149313,0.00011664444220967363,-0.0001873415915698204
0.11333333333333333,-2.6349862232815013,0.0056202099344761225,-0.00017908279476728202,-0.00008933301799521498,0.00012369933339380384,-0.00018442260336503256
0.12,-2.6140103059491233,0.006168294026158544,-0.00018970256066323045,-0.00010313320455149066,0.00011707433382297783,-0.00018683713550737005
0.12666666666666668,-2.593179614560675,0.006772407225419707,-0.000026760034111658164,-0.00008875374720835752,-0.000023893549334066425,-0.00044409129313407233
0.13333333333333333,-2.572536578177565,0.0074434080811053805,-0.0000890287783527061,-0.0001238052499084515,-0.00008729597167555094,-0.0003460871564998054
0.14,-2.5520995439802827,0.00817890789893388,-0.00011428370479071542,-0.00015247584182177197,-0.00018477788397616287,-0.0002829245097719645
0.14666666666666667,-2.5318036044591703,0.008998604746919056,-0.00013083454940895608,-0.00018236280608059768,-0.0003179014070427737,-0.00020531006762557178
0.15333333333333332,-2.5117265380829203,0.009901163537926999,-0.00014304837869581454,-0.00021500132195623536,-0.0004959364447144567,-0.00009809700521287803
0.16,-2.4918334232075243,0.010898581801124107,-0.00015219018178028713,-0.00025070810543709524,-0.0007323440953673735,0.00005171085901113689
0.16666666666666666,-2.472117242267915,0.012019135079934401,-0.00015839552945999817,-0.0002900694029937684,-0.0010432856336013401,0.0002577445886033506
0.17333333333333334,-2.452624960403263,0.013270427771642045,-0.00016084647346078273,-0.0003328398405643127,-0.0014481616769616067,0.0005367043125847293
0.18,-2.4333156313135844,0.014684830371189214,-0.0001592954679611747,-0.00037881740088467955,-0.001973652876406439,0.0009077011527101834
0.18666666666666668,-2.414245603741989,0.016320718904318725,-0.0001520071308667547,-0.0004277376728051088,-0.002655389274964298,0.0014004424230983623
0.19333333333333333,-2.395411797383512,0.01822410997246321,-0.00013827884529341432,-0.00047853327428150285,-0.0035252193226181245,0.0020365125201727177
0.2,-2.3768115080342356,0.020492531029989575,-0.00011660782197281336,-0.0005297877573999346,-0.004623373069353647,0.002847181757372374
0.20666666666666667,-2.3584738390224667,0.023249137613570635,-0.00008577706678151675,-0.0005800679896429222,-0.005991867138837415,0.0038634974589195686
0.21333333333333335,-2.3404767154959614,0.0267231722091411,-0.0000449356773454578,-0.0006269819426191244,-0.007668018301214372,0.005108667069194505
0.22,-2.322841837842395,0.03126448131723808,0.0000068585073373154566,-0.0006680433856724062,-0.009683372736640402,0.006596821035841611
0.22666666666666666,-2.305655772778397,0.037518732332368396,0.00007276204212579655,-0.0007016236611085274,-0.012046357535727036,0.00830743406445842
0.23333333333333334,-2.2891530110236147,0.04683892979649417,0.00016669760284276805,-0.0007307820773158397,-0.014701355438272555,0.01015009354817527
0.24,-2.273923521070823,0.06262299792156606,0.0003325525085197626,-0.0007684073360622744,-0.017514843319499086,0.011927696437246624
0.24666666666666667,-2.2587709596814607,0.08040183243766787,0.00041807150580485845,-0.0007499214223388507,-0.02089525837738992,0.014522602148851605
0.25333333333333335,-2.2423569918336534,0.09260892331285932,0.0005257320350879911,-0.0007141560868749058,-0.02490279699987921,0.017688815805279475
0.26,-2.2243110440357166,0.09679891229749638,0.0006825777862768448,-0.0006585311626015856,-0.029676368804168286,0.02160765592381256
0.26666666666666666,-2.2053363311656704,0.09523988436538597,0.0008682695604599915,-0.0005674394476612218,-0.03498476194738453,0.02625806358613647
0.2733333333333333,-2.185789663357065,0.08797083494005642,0.0010648620811822198,-0.0004348618912035118,-0.04040861668112714,0.03130962808752916
0.28,-2.1661626500718842,0.07405709752030684,0.001260570939533374,-0.0002676625441033345,-0.04519412564546805,0.036577350301613014
0.2866666666666667,-2.1471976225016727,0.051474237890656374,0.0014392193048107752,-0.00008567272661085712,-0.04800571899665713,0.04143359712409472
0.29333333333333333,-2.1296860125324346,0.018856684077844344,0.0015516534665086731,0.00009894947683116001,-0.04858648369165585,0.04523789871413758
0.3,-2.1076042185047963,-0.011638922195688852,0.0015848995454963307,0.0003216498922663185,-0.043832657349765505,0.04819420534710261
0.30666666666666664,-2.0875680681500453,-0.05106681348037922,0.001497040384780023,0.0004790300108136222,-0.03389584846448494,0.049038525679463575
0.31333333333333335,-2.068386378369727,-0.08836728034037103,0.0013790796762343247,0.0005309400916866228,-0.018217845429349205,0.04771928199535149
0.32,-2.0483201110509626,-0.1201580767357065,0.001139691325630144,0.00046329860225376943,0.006120434744041563,0.04362105375793605
0.32666666666666666,-2.027488150096062,-0.14784656395747936,0.0012250815619053693,0.0002455465311035795,0.03330842456878567,0.039827315020383225
0.3333333333333333,-2.005960681895582,-0.17264242083956816,0.004715539773407308,0.0001562086173358298,0.004950031064117804,0.06748824448818547
0.34,-1.9843670494896537,-0.18766849198779295,0.001181725168240102,0.0007407582242717481,0.08359708716848312,0.04188498196244712
0.3466666666666667,-1.9649762783815132,-0.17048814604021154,0.0009873453021694448,0.0011781507704727032,0.0975847833747392,0.03429283848349089
0.35333333333333333,-1.9481416217869167,-0.1405593894710883,0.001041343863589197,0.0012233152329735265,0.09687572127256042,0.035768344680666746
0.36,-1.9318303160036738,-0.11295452638828951,0.0011019333590602902,0.0012146485965058252,0.09876490076715613,0.03565322799771627
0.36666666666666664,-1.915895852708538,-0.08658112441884379,0.0005231372258469285,0.0013029165599094236,0.13612266394253042,0.03725627862205057
0.37333333333333335,-1.9002990546323644,-0.06112699185551347,0.0002358789311290852,0.0013763791756143077,0.17242769397500451,0.03607553584566081
0.38,-1.8850250594257214,-0.03641807800336001,0.0003645947063087981,0.0013864592288858391,0.19916006626742308,0.0315153658454933
0.38666666666666666,-1.8701504655038992,-0.012470673650062106,0.00034950775089575084,0.0013001693571668904,0.22939372495004406,0.025975851895428448
0.3933333333333333,-1.8556817628366886,0.01034660775585462,0.00030062820445809135,0.0011768625444593,0.2628218144281238,0.020198790280885143
0.4,-1.8415039282968488,0.032025554644076124,0.0002477491640327351,0.0010529930823735384,0.29921447018963115,0.014346830519324068
0.4066666666666667,-1.8276022217086931,0.05250846543465733,0.00019817527429141513,0.0009377104752873113,0.3386587148936403,0.008457257463668513
0.41333333333333333,-1.8141780043362483,0.06925518572958286,0.0002080226578699478,0.000929621908551993,0.38283625442289154,0.008261005621387
0.42,-1.8010423582979092,0.0815273715608534,0.0002831306445461712,0.0011116469069908138,0.4227434320145397,0.024501086734487917
0.4266666666666667,-1.7882135014451772,0.0889696919213075,0.0004285837908533939,0.0014999066162826608,0.4578762931736547,0.05864225125428988
0.43333333333333335,-1.7762101097828533,0.05999507352820946,-0.0019141924712178437,0.003014633868788216,0.7974760579306446,0.5113157346030212
0.44,-1.7641931726164006,0.02488618460007208,-0.005775570101874492,0.003900025821012911,-15.524668146830011,-19.665246046528267
0.44666666666666666,-1.751788844425544,-0.018687447874629046,-0.014389079465554438,0.00193787821200177,-95.22142963325707,-118.32409446046695
0.4533333333333333,-1.7397260935897607,-0.060658301667310816,-0.015264383407578897,0.002558869334941708,-85.25622664709422,-105.48187714520307
0.46,-1.7279099819566326,-0.10147185375279348,-0.010552241967650106,0.005045040534181161,-10.549742959436074,-12.129246776286152
0.4666666666666667,-1.7172242126582826,-0.13710957076097618,-0.010362300530195994,0.006597128955615777,-0.8543306682139582,-0.047071694380842216
0.47333333333333333,-1.7067045634063802,-0.171986624440013,-0.010836961356448566,0.008011940492286606,-0.7132293743878939,0.0912423184289829
0.48,-1.6962318464445059,-0.19612961591221692,-0.011273042037387297,0.009139131957943884,-0.6965506820488159,0.10713133540277373
0.4866666666666667,-1.6857776367484374,-0.21990694557966867,-0.011706610055491649,0.01024414047168738,-0.6858978415145089,0.11657709602423563
0.49333333333333335,-1.6759816737671756,-0.2506246235181239,-0.012116318194199286,0.01103074122129667,-0.6675849749274424,0.11262135364507979
0.5,-1.6661857107859135,-0.28134230145657924,-0.012526026332906923,0.011817341970905962,-0.649272108340376,0.10866561126592394
0.5066666666666667,-1.6581026641621939,-0.3426413297238243,-0.012814851479194471,0.012363253541696076,-0.6355430233533854,0.10344739606813948
0.5133333333333333,-1.6500859232128644,-0.40512413853492235,-0.013098997337845225,0.012899848219545254,-0.62199137302566,0.09818031151881343
0.52,-1.6426053720856262,-0.47912605277869486,-0.013326994725899495,0.013365816301304278,-0.6099395388542405,0.09311583220952577
0.5266666666666666,-1.635796175214275,-0.567550845148099,-0.01348468955850906,0.01374335401025436,-0.5997655992606329,0.08830503151285
0.5333333333333333,-1.6289869783429234,-0.6559756375175045,-0.013642384391118628,0.014120891719204446,-0.5895916596670252,0.08349423081617416
0.54,-1.6208159719046074,-0.7110895169983008,-0.013778030306076003,0.014569554363823964,-0.5783197055962259,0.07770861524190814
0.5466666666666666,-1.6111617689741382,-0.7299232657285505,-0.013889661940247842,0.015095681771247782,-0.5658518638914942,0.07086129321321952
0.5533333333333333,-1.601234142822865,-0.7382395021421247,-0.013933310685802475,0.015566843529558602,-0.5533343078969815,0.06382549461810723
0.56,-1.5908737240831732,-0.7299079155731696,-0.013869351561600124,0.01595100197672498,-0.5407380607946237,0.05649136268905636
0.5666666666666667,-1.5803981700256529,-0.7106923458571518,-0.01367918994576436,0.016290622823424743,-0.5283647218602817,0.04948246995686042
0.5733333333333334,-1.5697750252241325,-0.6775247134669529,-0.013327250693091446,0.016573151391987766,-0.5162771265446788,0.04289049790501687
0.58,-1.5592144724767467,-0.6292037206792256,-0.012837962404907343,0.01675147396565405,-0.5033276949223906,0.035987145591329914
0.5866666666666667,-1.5487077780085001,-0.5678437898750186,-0.012230490062911272,0.016840130915804528,-0.4896366832222565,0.028815861424428657
0.5933333333333334,-1.5385561230067162,-0.4834258244311282,-0.011452410757024448,0.016771995764251656,-0.4764090872040137,0.02209075760568572
0.6,-1.528626072141625,-0.3846157805204039,-0.01056784410953748,0.01660599606066922,-0.4634707402462726,0.01564414511031019
0.6066666666666667,-1.5198884999084115,-0.24056672375044957,-0.009641726929132096,0.016303511057855928,-0.45119366679626954,0.009905507219327652
0.6133333333333333,-1.5120063257939265,-0.06406646369817048,-0.008685804394785432,0.015903121350442386,-0.4393909432418226,0.00467471922059145
0.62,-1.504097347196936,0.11243950095844837,-0.00771964399659823,0.015493902061222456,-0.42752358534126284,-0.0005536766799494088
0.6266666666666667,-1.4949139846113217,0.28921668355135594,-0.006266737780672732,0.014664891877770932,-0.4125832721696988,-0.005668343407062898
0.6333333333333333,-1.4857306220257074,0.4659938661442605,-0.004813831564747257,0.01383588169431942,-0.397642958998135,-0.010783010134176305
0.64,-1.4738528662102945,0.5312458955132977,-0.002686975596027789,0.012589199084676221,-0.3553819430043784,-0.023652511448909435
0.6466666666666666,-1.4610251863687327,0.5583916448993549,-0.00029373502246983095,0.010867052964593593,-0.30687652980401847,-0.03763382713770491
0.6533333333333333,-1.4467479882242928,0.5303426893247013,0.002576074529135249,0.007620121542461921,-0.25709229026282143,-0.049361307363675604
0.66,-1.4318740193212336,0.48308085647719856,0.0056585096241693325,0.0031340293445362333,-0.21212395236267226,-0.059358841891858506
0.6666666666666666,-1.4165380025997216,0.4164415429642069,0.00899914492768037,-0.0025198143604995126,-0.17131005860643,-0.06904629307352879
0.6733333333333333,-1.4007314423828676,0.3255847368223939,0.01139835399663616,-0.009514646807951202,-0.13308880527302963,-0.07645044027653058
0.68,-1.3844267222366493,0.20053436656254767,0.007501133593334765,-0.018089817434527138,-0.08971594027724601,-0.07075996284972688
0.6866666666666666,-1.3647752498648074,0.2651674551553274,0.01355779817979785,-0.023361688774899428,-0.08646048867767499,-0.07683656359628464
0.6933333333333334,-1.3434934487483061,0.4922669061835251,0.02142629331449825,-0.02994234159466463,-0.03775182375807523,-0.12494261535181889
0.7,-1.3224424792177154,0.777303527661382,0.03213829563553697,-0.032164241439601976,-0.09075005389232418,-0.05144921313996649
0.7066666666666667,-1.301969572047551,1.121031576587093,0.0355549946767894,-0.033012400030607056,-0.050828765678630865,-0.05899472473149737
0.7133333333333334,-1.2822997135311103,1.5399480529945389,0.03655327377013572,-0.03296979125995817,-0.011232476610238573,-0.06386024521122674
0.72,-1.2607667293874623,1.9495505340119847,0.03658865697792316,-0.03269273771206611,0.028309921870628658,-0.06555919997564795
0.7266666666666667,-1.2401065017447581,2.337512517029201,0.03213276156851069,-0.031130679073957383,0.05703721407035324,-0.06370540976220646
0.7333333333333333,-1.2172706419393124,2.472315757811061,0.026585936365644037,-0.02927255637268249,0.0767846162572839,-0.05857510710177724
0.74,-1.1940939173030245,2.510548696451549,0.02043289929767033,-0.0272350005094471,0.08500013525298092,-0.051869886862121836
0.7466666666666667,-1.1710671928428609,2.488055786995787,0.01425185345760517,-0.025011190330820995,0.08379249949000683,-0.04417976769548289
0.7533333333333333,-1.1485054281104132,2.416582076701709,0.008763459978028049,-0.02271469013836211,0.07661089000541159,-0.036341040474923
0.76,-1.1267121244694145,2.2958782517405814,0.004498588138996324,-0.020457428484378894,0.0666908287650655,-0.02879790275599633
0.7666666666666667,-1.1064135256489316,2.0988671518803006,0.0013782064858091276,-0.01843788490559772,0.056493241878709986,-0.022071248521686664
0.7733333333333333,-1.0876678917038964,1.8407090566660935,-0.0012165273287639883,-0.016390948786119817,0.047507416552676575,-0.017320111828956587
0.78,-1.0679282162237755,1.6557188203944708,-0.003172952585548923,-0.014295215247894939,0.03887684730943717,-0.013119285052719466
0.7866666666666666,-1.046571244099151,1.5625630060004347,-0.0042657105477633996,-0.012268133178817241,0.03067872140304715,-0.00895371533888361
0.7933333333333333,-1.0243587414561939,1.5067995402688978,-0.004756404321022049,-0.01034202089508416,0.023587632560858437,-0.00521898232697652
0.8,-1.0014677618626437,1.4718308754923421,-0.004866021985136391,-0.008516601934764285,0.017750828549976602,-0.002052742431054595
0.8066666666666666,-0.9778798398156764,1.4504193388480238,-0.004668130954693099,-0.006820751117270955,0.013171184200824788,0.0005286601274831946
0.8133333333333334,-0.9537554026302645,1.4378382040546769,-0.00422895646753395,-0.0052913764108299816,0.00975347985668289,0.0025705749214124324
0.82,-0.9290263649322051,1.4308472854022072,-0.0036199388857144953,-0.003917334131085802,0.007214881385248775,0.004218306191589206
0.8266666666666667,-0.9038198068890803,1.4279757132188369,-0.0028820808137529274,-0.0027029139272305718,0.005401157406201403,0.005558330460815931
0.8333333333333334,-0.8780785203842711,1.4279897233672987,-0.0020362655317848833,-0.0016461584051218876,0.0041607380215185116,0.006683743412732347
0.84,-0.8517553070431375,1.4311922897518707,-0.0010661259855917725,-0.0007498001756280468,0.0034434573259872966,0.00767072100836235
0.8466666666666667,-0.8249469964115195,1.4360726357385423,0.00004032506997867836,0.00002077111902084824,0.0030759947198578702,0.008641479050084007
0.8533333333333334,-0.7976450444895857,1.4423534185290268,0.0013663139029104145,0.0007022096719199748,0.003029080570209586,0.009703844039593708
0.86,-0.7697156151865369,1.4503714995715025,0.00326010679824657,0.0013691738366809656,0.0034477745108261737,0.011142061356402345
0.8666666666666667,-0.7413055179017627,1.459321315084652,0.006462469921845139,0.0022236988694660426,0.004581341207106206,0.013491146752739153
0.8733333333333333,-0.7123398701110893,1.4695872247424009,0.016577058276286142,-0.0015213815935874414,0.00467557575255741,0.022209500313369393
0.88,-0.6828023141219266,1.4806848858407862,0.0036822824646121737,-0.006462066551679364,-0.002282912528714998,0.01528518969961484
0.8866666666666667,-0.6527282722835017,1.4928546298537668,-0.007962656998624126,0.00015309174170012488,-0.0009043179764349504,0.005974979864288454
0.8933333333333333,-0.622055909496359,1.5060308850326827,-0.008496850594773968,0.00017563074844950162,-0.0009805158463163034,0.0065261608582451594
0.9,-0.5907545135908583,1.5201257764673541,-0.009244429017725386,0.00008854038326549106,-0.0010621096720634417,0.007211422719044791
0.9066666666666666,-0.5588572349593384,1.5356037042953739,-0.010274586241698015,-0.00012933130805255886,-0.0011588525612349382,0.008092641495062962
0.9133333333333333,-0.526344212344339,1.551792477196429,-0.011728877010971271,-0.0005146537608080074,-0.0012906976778679937,0.00929073815897906
0.92,-0.4931335401316043,1.569461999839312,-0.013809334760983638,-0.0011156378345861917,-0.0014806586074118185,0.010977343831701738
0.9266666666666666,-0.4592387388250172,1.588248296333627,-0.017195150499901647,-0.0020936181627918935,-0.0018138206453415498,0.013717263904181516
