# n,energy,berry,bcd_x,bcd_y,qmd_x,qmd_y
0.0000015,-3.001661823228984,-0.0000000000000006926511181545809,0,0,0,0
0.006688963210702341,-2.977530538098243,-0.000000049989581742776084,-0.000000000000000000001594782692589603,-0.000000000000000000001765480178374487,0.0000000000000000000010379572387636189,-0.00000000000000000000027163939483705083
0.013377926421404682,-2.9535733856442876,-0.00000034206397537998687,0.000000000000000000007773894098116327,0.000000000000000000009539510696880999,0.0000000000000000000023772506249626587,0.000000000000000000015385226412315503
0.020066889632107024,-2.9297855435917945,-0.0000010701896556644757,0.00000000000000000006492100165297395,0.00000000000000000004950183205379367,0.00000000000000000002939207675359955,-0.00000000000000000004172772450842386
0.026755852842809364,-2.906308658349775,-0.0000025323179701438284,-0.000000000000000000001615447790730969,0.00000000000000000027778596842461807,-0.000000000000000000093189327063178,-0.0000000000000000000040057450372144255
0.033444816053511704,-2.883003295725088,-0.0000053036921111813705,0.0000000000000000001379251310753478,-0.00000000000000000013741288304735044,0.00000000000000000007458235991754423,-0.000000000000000000020315875224005606
0.04013377926421405,-2.8598268948038794,-0.000009825323426604395,0.0000000000000000002259664387959786,-0.000000000000000000023691543866636696,-0.00000000000000000012219190054847133,-0.0000000000000000002971777283833558
0.046822742474916385,-2.8368536523765018,-0.000015796779173634548,-0.00000000000000000006917352076277841,0.00000000000000000014261660774451346,0.00000000000000000020416883968974138,-0.000000000000000000003009973339994495
0.05351170568561873,-2.814176215440677,-0.000024316872329354915,-0.0000000000000000004619089624600397,-0.00000000000000000024751560635034214,-0.00000000000000000002938715950355764,0.0000000000000000004941226034189533
0.06020066889632107,-2.7916332685401066,-0.00003655102170834009,0.0000000000000000002627286394957789,0.0000000000000000013557135610281166,-0.0000000000000000015615234745101371,0.00000000000000000020703810887650083
0.06688963210702341,-2.7692616440066424,-0.00005125579846508177,0.0000000000000000013849729106078118,-0.0000000000000000004630667170722366,0.0000000000000000001439400510328146,-0.00000000000000000014984663827774577
0.07357859531772576,-2.747072452881457,-0.00007230113504085834,0.0000000000000000020073726016120062,-0.0000000000000000006470914450102349,-0.0000000000000000003403957133534094,-0.0000000000000000003123782544442578
0.0802675585284281,-2.7250913306904034,-0.00009842172013077292,-0.000000000000000002263114565951199,-0.000000000000000002312732928897882,0.00000000000000000008622256232847036,-0.0000000000000000009857298713039876
0.08695652173913043,-2.703319120003411,-0.0001310917564348186,0.000000000000000001790482457308726,-0.0000000000000000031702634603696077,0.0000000000000000019671523122636122,0.0000000000000000005708545762805185
0.09364548494983277,-2.681769347276162,-0.00017045926595986763,-0.000000000000000000980928474092458,0.000000000000000003733172611099026,0.0000000000000000010760350013214153,-0.0000000000000000003887621391859498
0.10033444816053512,-2.6603694925334804,-0.0002198579023801731,-0.000000000000000013006583638757095,0.000000000000000009331560746358275,0.0000000000000000015685135258899443,0.0000000000000000007065162277828745
0.10702341137123746,-2.639162214084276,-0.00027714403391412514,-0.000000000000000010046201381154462,0.0000000000000000003391471074379482,-0.0000000000000000023082653183227737,0.000000000000000002078394854087945
0.11371237458193979,-2.6181316668097914,-0.0003488986222519309,-0.000000000000000001923720481111688,0.000000000000000009646960175326301,-0.000000000000000004271174897359959,-0.0000000000000000025760064529562448
0.12040133779264214,-2.5973096722016744,-0.00043294804613158006,-0.000000000000000017320772686222924,0.00000000000000000780463106996485,-0.00000000000000001431498666364642,-0.000000000000000003641448275437299
0.12709030100334448,-2.5766201548594863,-0.0005305010618855122,-0.000000000000000005872816942826222,0.00000000000000003975313246228747,0.0000000000000000018375502122873074,-0.0000000000000000032316007256945035
0.13377926421404682,-2.5561007619322718,-0.0006521104483191936,-0.00000000000000003055783175130463,0.00000000000000000073865181108844,0.000000000000000012625434257384682,0.0000000000000000004600397212101493
0.14046822742474915,-2.5358644704579585,-0.0007905541577088715,0.000000000000000023946109580312647,0.000000000000000005494249593072468,-0.000000000000000003543375051087409,0.000000000000000011157361400102542
0.14715719063545152,-2.5157994485752764,-0.0009511606777760334,0.000000000000000013890540252341237,-0.000000000000000009745956886052917,0.000000000000000016609578171823932,-0.0000000000000000030863873856887407
0.15384615384615385,-2.495924569060221,-0.001138549818299533,-0.000000000000000038534043889927284,-0.00000000000000005409586875892949,-0.00000000000000001739812098597471,0.000000000000000013521789937524614
0.1605351170568562,-2.476114194205696,-0.001354815152726221,-0.000000000000000013242838713279604,-0.000000000000000020686827014714158,0.000000000000000010750010608414797,0.000000000000000038114789343887343
0.16722408026755853,-2.4565543852120713,-0.0016161381291495635,-0.00000000000000006213352203220082,-0.000000000000000012206067295646325,0.00000000000000003309078586530285,0.0000000000000000050303363966862815
0.17391304347826086,-2.4372406296514963,-0.0018976115896770357,-0.000000000000000011025698997094126,0.000000000000000005697799516393118,0.000000000000000012394809336011215,0.000000000000000005112399061892886
0.1806020066889632,-2.418131448676548,-0.0022327438272511033,0.000000000000000033169979991760504,0.0000000000000000025497483956039557,-0.00000000000000002300522920536239,-0.00000000000000004003156119292043
0.18729096989966554,-2.399126790053659,-0.0026253487966150448,-0.000000000000000003512736224572284,0.00000000000000006123496293915106,-0.000000000000000011767698785779291,-0.00000000000000003571744113597662
0.1939799331103679,-2.3803509606173017,-0.0030793794689019764,-0.00000000000000010749168663812265,-0.00000000000000007678559018031705,0.0000000000000000030989430435558058,0.0000000000000000359868771435252
0.20066889632107024,-2.361693419932185,-0.0035649530683212823,-0.000000000000000047231789576950934,0.00000000000000014905464756379013,0.00000000000000002152966051731208,-0.000000000000000038017254843698614
0.20735785953177258,-2.3432582751923885,-0.004151846904802111,-0.00000000000000012195237704068123,0.00000000000000005101942545058704,0.00000000000000009886319779843701,0.000000000000000015024041224314376
0.2140468227424749,-2.325057279705724,-0.004825357119578697,-0.00000000000000014262033955218156,-0.0000000000000000017471929243992453,0.000000000000000047644583394612896,-0.000000000000000008761817525343351
0.22073578595317725,-2.306994861325338,-0.0055767592719958466,-0.0004888609671425706,0.000000000000000031800889239624197,-0.00000000000000003536902568623062,-0.00017543439116995193
0.22742474916387959,-2.2891178967189023,-0.006434890248804646,-0.0008211840965679498,-0.000000000000000034902959550072475,-0.00000000000000004678548484139602,-0.00030487399591095146
0.23411371237458195,-2.2714940110983224,-0.0074062927875471135,-0.0006519317811904873,-0.000000000000000019947915902194446,-0.000000000000000034189083323487806,-0.0002624592713059946
0.2408026755852843,-2.2540546243339823,-0.008516790093050588,-0.0005929537582508118,0.0000000000000002045774228090993,-0.000000000000000044241026485156255,-0.0002545581446038075
0.24749163879598662,-2.236698330325511,-0.009844152567054702,-0.0005651275092999843,0.00000000000000021945573485774683,-0.000000000000000048384671205198494,-0.00025591448163997133
0.25418060200668896,-2.219478564816707,-0.011249146776028469,-0.0005515828664592782,-0.00000000000000021412650972013713,0.00000000000000005558030976532904,-0.0002612378653004476
0.2608695652173913,-2.2027507313359718,-0.012863671733378716,-0.0005477172358729512,-0.0000000000000001137580711905835,-0.00000000000000006746375846808459,-0.0002690508755150562
0.26755852842809363,-2.186168184482571,-0.014770072262433695,-0.0005477936890440673,0.0000000000000001237071277048201,-0.00000000000000004635060194946363,-0.00027766089723636864
0.27424749163879597,-2.1697501851636556,-0.01692862687155672,-0.0005505777386587182,0.0000000000000001450989021659846,-0.00000000000000007264659217188818,-0.0002866776502989054
0.2809364548494983,-2.153487427305807,-0.01936799299700442,-0.0005557669351083604,0.00000000000000020931543586638404,-0.000000000000000024197545817798926,-0.0002961341404860593
0.28762541806020064,-2.1374019067922294,-0.022141825696707817,-0.0005629440641182263,0.0000000000000003192758155984695,0.0000000000000001486640880478197,-0.00030593432758607475
0.29431438127090304,-2.121561119681708,-0.025297911261622858,-0.0005711424976884261,-0.00000000000000007776897590393223,0.0000000000000002680072350885025,-0.0003156454101185179
0.3010033444816054,-2.1059950910246954,-0.02908806260353177,-0.0005804077810250089,0.0000000000000005074527701401503,0.000000000000000021245762414634427,-0.0003252189948633543
0.3076923076923077,-2.0906142478650502,-0.03330724962454792,-0.0005906041104651559,0.00000000000000021614555648798665,0.00000000000000002286384631775365,-0.00033482433213944096
0.31438127090301005,-2.0754840025942842,-0.038115501953384714,-0.0006012507919565702,0.000000000000000043307643828625607,0.000000000000000026899384195123354,-0.00034422082621816627
0.3210702341137124,-2.0606118324877194,-0.04361682228357245,-0.0006121842775158466,0.0000000000000001794085253678524,0.000000000000000015260720231270333,-0.00035335646284699384
0.3277591973244147,-2.0459881711533936,-0.05012676557968829,-0.0006237648839993317,-0.00000000000000038584988221127333,0.00000000000000036501898400685405,-0.00036239411465657177
0.33444816053511706,-2.031707919700622,-0.05777532597564925,-0.0006355601481184383,-0.0000000000000004200780064911534,0.00000000000000000781027778316687,-0.0003711079170552806
0.3411371237458194,-2.017670019936152,-0.06655617089758681,-0.000647498615413311,-0.00000000000000036461259001061398,-0.00000000000000026649959340985557,-0.0003795859642083478
0.34782608695652173,-2.0038565857894413,-0.07652741037562456,-0.0006595604349903814,-0.00000000000000032933618672930754,-0.00000000000000026287808829817454,-0.0003878437885358127
0.35451505016722407,-1.990471951478377,-0.08912207993338223,-0.0006717159435298557,-0.00000000000000017891218082042395,-0.00000000000000026606912542401664,-0.00039570215238645117
0.3612040133779264,-1.9773969049540194,-0.10403976223397232,-0.0006838454593396001,0.00000000000000025346414588982546,-0.00000000000000031019723760724573,-0.0004032907196521766
0.36789297658862874,-1.9645955858697939,-0.12099057672093669,-0.0006959334318868797,0.000000000000000798398230137998,-0.0000000000000003644051283547664,-0.00041064628272214536
0.3745819397993311,-1.9525976644971212,-0.14361346804695968,-0.0007076360254272578,-0.00000000000000026704550701888723,-0.00000000000000007753058544657376,-0.0004173966198020951
0.38127090301003347,-1.9410689727274624,-0.17140682715291672,-0.000719067389720521,-0.0000000000000004195648951801384,0.00000000000000009722348332150771,-0.0004238449172995162
0.3879598662207358,-1.930174308492507,-0.20618657185500341,-0.0007301322664567688,0.0000000000000006614678426252505,0.00000000000000012047929334330386,-0.0004298850960195551
0.39464882943143814,-1.9219747755939511,-0.2843464111915908,-0.0004721737810360499,0.000000000000000822549049796877,0.00000000000000018132367808645281,-0.0005966458382090621
0.4013377926421405,-1.9153552746422875,-0.3879380112947151,-0.00005649923149351392,0.0000000000000004443048488288865,0.00000000000000026420452097758075,-0.0008576296786849376
0.4080267558528428,-1.9087357736906239,-0.49152961139783946,0.000359175318049022,0.00000000000000006606064786089599,0.0000000000000003470853638687087,-0.0011186135191608132
0.41471571906354515,-1.9007678848830807,-0.5745390850579434,0.0013934735210046991,-0.000000000000000010380990725000664,-0.000000000000000033789526765883615,-0.0017648685754253458
0.4214046822742475,-1.892154600357539,-0.6476970785109907,0.0027238712885067394,0.00000000000000005763290000368253,-0.0000000000000006366376154752972,-0.0025955308049330312
0.4280936454849498,-1.882887850809564,-0.7120882195291294,0.004331817462420224,-0.00000000000000005529573858243185,-0.0000000000000005052186167873648,-0.0036037978401213485
0.43478260869565216,-1.8726650029154743,-0.7636523953297067,0.006345850516620775,-0.00000000000000043296517748779415,0.0000000000000007005219198042568,-0.0048719221823479274
0.4414715719063545,-1.8621408945187037,-0.8081699207856913,0.008557922811750053,-0.000000000000000644830677679387,0.0000000000000012238112293564047,-0.006269711283146891
0.44816053511705684,-1.851307139699896,-0.8454446445895238,0.010973546989156304,-0.000000000000000686276903105785,0.0000000000000010456525270162649,-0.007800774504512176
0.45484949832775917,-1.8402472085661343,-0.8747336581171505,0.013529709216627,-0.000000000000000526205401786861,0.0000000000000006396976259819368,-0.009423084758091217
0.46153846153846156,-1.8290847799260186,-0.9004037454546319,0.016149559809001915,-0.0000000000000002748110558024852,0.00000000000000013051112738685942,-0.011086745907611904
0.4682274247491639,-1.8177205224101494,-0.9159148823180157,0.018793678045918277,-0.0000000000000004492292240225448,0.000000000000000026631410466818418,-0.012753784889814358
0.47491638795986624,-1.8062941061802722,-0.928091776148771,0.02141147746207619,-0.0000000000000004125953858873706,0.000000000000000043696305565144895,-0.014393465911205236
0.4816053511705686,-1.7946936149555037,-0.9307679824654267,0.023928742201622312,0.0000000000000004867647402490053,0.0000000000000003963846593997167,-0.015933984963552153
0.4882943143812709,-1.7831916802164187,-0.9261418710507943,0.02625367513861484,0.00000000000000008048266084834446,0.00000000000000003435792394896286,-0.017298420736698145
0.49498327759197325,-1.771776456687608,-0.9150910905349937,0.02840939218628176,-0.0000000000000014745195158925825,-0.0000000000000009564839520147306,-0.018507936271538517
0.5016722408026756,-1.760691766123845,-0.8878906054185082,0.030189128423359694,0.0000000000000001752596399461335,-0.000000000000001340151062863623,-0.019308060694960005
0.5083612040133779,-1.749723694716515,-0.8557471441021259,0.031873564916555776,0.000000000000002343779673508854,-0.0000000000000015557731691850022,-0.019990719015100227
0.5150501672240803,-1.7397224454291444,-0.7931327705006869,0.033287850926344745,0.00000000000000029498167979115066,-0.000000000000001020987693725415,-0.020075003310145837
0.5217391304347826,-1.7299739932953917,-0.722863600817852,0.034927449633218616,-0.0000000000000015219367810688995,-0.0000000000000005573395122265407,-0.02017033700644292
0.5284280936454849,-1.722850319368704,-0.5731151266948349,0.03890645702654627,-0.0000000000000009312634799182648,-0.0000000000000008323057345124271,-0.02038039599608672
0.5351170568561873,-1.7157266454420161,-0.42336665257181794,0.042885464419873925,-0.0000000000000003405901787676301,-0.0000000000000011072719567983133,-0.020590454985730523
0.5418060200668896,-1.7075855718841033,-0.2962145869639326,0.03727182904229939,0.0000000000000003567882285624216,-0.0000000000000011828920950106439,-0.01715616701971764
0.5484949832775919,-1.6974940439895791,-0.21238204067522504,0.013268161746254503,0.0000000000000012587307331249495,-0.0000000000000008763463445843443,-0.006735310447209736
0.5551839464882943,-1.6865837275040512,-0.1387092527731168,-0.001019135325507357,0.0000000000000017718536144932428,-0.00000000000000027096051517028073,-0.0005370798320135154
0.5618729096989966,-1.6744708100798833,-0.07995867446982236,-0.001035451975366174,0.0000000000000017138952070496854,0.000000000000000773348576539403,-0.0005408578861875831
0.568561872909699,-1.6618063445506916,-0.03210514483054445,-0.0010527443148266318,0.00000000000000037273948570794716,0.0000000000000013098578119154363,-0.0005445793972409395
0.5752508361204013,-1.6487923965556892,0.011070444408203196,-0.0010706549665705394,-0.000000000000001949510486126209,0.000000000000001052364595842679,-0.0005482618891891108
0.5819397993311036,-1.635211818369023,0.0492522903624169,-0.0010895682030426642,-0.0000000000000060579168414105056,-0.0000000000000010418963532015412,-0.0005518774051630302
0.5886287625418061,-1.6208835714456313,0.08310195530958385,-0.0011097888913599496,-0.000000000000003629189947658554,-0.0000000000000020908752659018513,-0.0005554094878916025
0.5953177257525084,-1.6061706521293937,0.11423633820551783,-0.0011307625959752928,-0.0000000000000008339662948853258,-0.0000000000000029157597456841155,-0.0005588066323342546
0.6020066889632107,-1.591112646710758,0.14285904065480406,-0.0011524548415774137,0.0000000000000006850092759444541,-0.0000000000000030855382414491576,-0.0005620305210336945
0.6086956521739131,-1.5755798906479537,0.16886204925172593,-0.0011751070525451378,0.0000000000000015123667677912204,-0.000000000000000009257391351793776,-0.0005650382284854847
0.6153846153846154,-1.5597257127050976,0.1932035338338031,-0.001198531629916008,-0.00000000000000006433622826789896,0.0000000000000008569898260186238,-0.0005677432748086191
0.6220735785953178,-1.5432408141586231,0.216484903908497,-0.0012231525451896236,-0.0000000000000041046144385557695,-0.0000000000000005014969513114181,-0.0005702252769678603
0.6287625418060201,-1.5263661820011407,0.23843302242424524,-0.0012486368627336617,-0.000000000000003675558344137182,-0.0000000000000001189835195386471,-0.000572401907963347
0.6354515050167224,-1.5093092104173946,0.2589201638494875,-0.0012746822014997874,-0.00000000000000027576576989378586,0.0000000000000008060658953118072,-0.0005742177896681438
0.6421404682274248,-1.4919015683071462,0.2780352017075435,-0.001301545116954775,-0.00000000000000012175305970536794,-0.000000000000001592513905467498,-0.0005756581464693894
0.6488294314381271,-1.4737713210122183,0.29596545265507584,-0.0013298070625128373,0.0000000000000013970971867680813,-0.0000000000000021270869356021484,-0.0005766923124691026
0.6555183946488294,-1.4555557717382208,0.3133629900239289,-0.001358544669677144,-0.0000000000000058049970853450446,0.0000000000000018625355051723773,-0.0005772767479796565
0.6622073578595318,-1.4368741273412986,0.33051127420957954,-0.0013883262131378392,-0.0000000000000012751888908590168,-0.000000000000002637577450797109,-0.0005773714520981794
0.6688963210702341,-1.4177720698305465,0.34649878851841326,-0.001419087451809274,0.0000000000000044731832161226974,0.000000000000002147225317447048,-0.0005769288096368778
0.6755852842809364,-1.398338803517739,0.3617268744021333,-0.0014506858230857115,-0.0000000000000017847418623898537,0.0000000000000007004148627421645,-0.0005759098328429576
0.6822742474916388,-1.3787007686799484,0.3768712677681002,-0.0014828934473708867,0.0000000000000039079364384519054,-0.00000000000000038898854256406034,-0.0005742926834930956
0.6889632107023411,-1.358349025288761,0.39117603536197615,-0.001516553105652237,0.000000000000005754609754038863,0.0000000000000012102563287417479,-0.0005719745301193083
0.6956521739130435,-1.3378528845235031,0.4049294556279415,-0.0015507489288788005,0.00000000000000019239889586256323,0.0000000000000011109544255055151,-0.0005689882728343404
0.7023411371237458,-1.317123564644773,0.418462389013875,-0.001585579158727108,-0.0000000000000008680998054946562,-0.0000000000000007351964661834013,-0.0005652872357296794
0.7090301003344481,-1.2957569689859607,0.43134393500062007,-0.0016217027363544996,-0.00000000000000021543924887943464,0.00000000000000043222592580227826,-0.0005607434722169674
0.7157190635451505,-1.2742297945445862,0.44386711843516846,-0.0016582879936105255,-0.000000000000000651022868646785,-0.00000000000000015891499134398345,-0.0005554140218300916
