# n,energy,berry,bcd_x,bcd_y,qmd_x,qmd_y
0.00000016666666666666665,-3.1027650354772125,0.000000000608673967655238,0,0,0,0
0.006688963210702341,-3.055101183325093,0.000028870796384003322,0.00003603580981264797,-0.00006241586506873704,0.00013748065853727836,-0.000079374587807201
0.013377926421404682,-3.008069764897642,0.0000776342282984217,0.00010598274610990256,-0.00018356753333781959,0.0003855432047550032,-0.00022259325767198915
0.020066889632107024,-2.961634494910363,0.00016401174739932907,0.00020149175125167902,-0.00034899425387684336,0.0006982082212480406,-0.0004031112510862461
0.026755852842809364,-2.927270826042358,0.0002727088436989093,0.0002928100867146774,-0.0005071617899251506,0.0009275832167192241,-0.0005355401595071623
0.033444816053511704,-2.903611598844901,0.0003756982156650251,0.0003751379389008106,-0.0006497581423920108,0.001016018994850086,-0.0005865982604344509
0.04013377926421405,-2.880521873605373,0.0004972328966905215,0.0004693653981425416,-0.000812965022435063,0.0010490554568399464,-0.0006056720990702855
0.046822742474916385,-2.857612295067527,0.0006415900067586001,0.0005747879259770261,-0.000995562105964282,0.0010280395847364703,-0.0005935391913002305
0.05351170568561873,-2.8348553364340487,0.0008081361783361357,0.0006884671252669677,-0.001192460036587069,0.0009536140711209883,-0.0005505692218467137
0.06020066889632107,-2.8122523133996062,0.0009979104732515246,0.00080860221794589,-0.001400539938480677,0.0008189844887277287,-0.0004728414140205866
0.06688963210702341,-2.7898151348681672,0.0012120382291808578,0.0009332350072160493,-0.0016164104271891415,0.000614947562928509,-0.00035503969476208903
0.07357859531772576,-2.7675333541333558,0.0014515266637121307,0.001004870413732035,-0.001829779608628648,0.0004644344397291106,-0.0001307046193157945
0.0802675585284281,-2.7454003074195743,0.001717923443741394,0.0011202613760600607,-0.002048358998062306,0.00014071310557633852,0.000128421618944056
0.08695652173913043,-2.723433601440334,0.0020121142517134393,0.0012656312677925454,-0.0022685331664900462,-0.0003835208653346597,0.00041420804564567203
0.09364548494983277,-2.7016214021092964,0.0023362421468561744,0.0013914247013615847,-0.0024776558240281023,-0.0010256907470488142,0.0007810379163070704
0.10033444816053512,-2.679990292802133,0.0026906217837882784,0.001505409977892487,-0.0026698057243189515,-0.0018309655997427805,0.0012394622077023785
0.10702341137123746,-2.6585085791507757,0.0030771619019382456,0.0016057575337880188,-0.00283887443250121,-0.0028402106979063687,0.0018072557247213131
0.11371237458193979,-2.637187655849438,0.003497974559590533,0.0016881733513992002,-0.002976243124333155,-0.004109971431732629,0.0025116956032165435
0.12040133779264214,-2.6160603408235987,0.003953848882869548,0.001757467722982103,-0.003067532657269652,-0.0056802433191741756,0.003371232890628898
0.12709030100334448,-2.595078397609094,0.004444029690453293,0.0018945783553249345,-0.0030502036075552596,-0.0074805605273318004,0.004340297959417385
0.13377926421404682,-2.574269956974918,0.0049705217549992605,0.0018532977572677637,-0.003073072373094626,-0.010035716606819433,0.005674787194779586
0.14046822742474915,-2.5536592564796576,0.005533286592838909,0.001810168952111254,-0.003004302644101387,-0.013118622406044587,0.00728962836023548
0.14715719063545152,-2.5332023881691113,0.00613158462845141,0.0017302172419011283,-0.002856709836613833,-0.016961619560352994,0.009294501545207357
0.15384615384615385,-2.5129320971795943,0.006765769653869105,0.001607358130798813,-0.0026277876196162185,-0.02177535765857305,0.01179872401755593
0.1605351170568562,-2.4928640355731355,0.007431655955984729,0.0014416910316920422,-0.002319848773944085,-0.027831224663312965,0.014946827660855198
0.16722408026755853,-2.4730015122590463,0.008126847797228077,0.0012408360467331724,-0.0019467367198090805,-0.03548945737778926,0.018933959639467906
0.17391304347826086,-2.453344127183037,0.008846045716423135,0.001025275031127585,-0.001544070835778998,-0.045231207343222946,0.024025153903453608
0.1806020066889632,-2.4338828708917837,0.009583046809385744,0.000838025422542663,-0.0011862290459068983,-0.057709917249303265,0.03058466654723984
0.18729096989966554,-2.4146693226873928,0.010318315276056646,0.0007613680648400067,-0.0010156932130122086,-0.07374690024412324,0.03907891600192559
0.1939799331103679,-2.3957446892662624,0.011036956881075503,0.0009550363965434708,-0.001308848914359779,-0.09458816962212077,0.05021856009209176
0.20066889632107024,-2.3771085350688064,0.011699369406775472,0.0017624790104607854,-0.0026600892001023826,-0.12227654221402567,0.06517592210560348
0.20735785953177258,-2.358816670701787,0.012254532084262477,0.003755340099203179,-0.006059841856594051,-0.15882459350180625,0.08512913841877444
0.2140468227424749,-2.3409860298288034,0.012607386270563285,0.007983429049178406,-0.01332675588548086,-0.2070655156545384,0.11173761507841304
0.22073578595317725,-2.3240390663632002,0.012521614093122035,0.016048050044871635,-0.027236160621187718,-0.27025373108443035,0.1469379333311267
0.22742474916387959,-2.307463339208857,0.01204775500360322,0.027427890276846098,-0.04688399497679295,-0.3241287362082897,0.17671713911659476
0.23411371237458195,-2.2906724133798413,0.011187024523616484,0.04218736683347408,-0.07237975416177783,-0.33530781659369724,0.18177986697260118
0.2408026755852843,-2.2733547371048646,0.009665827530277372,0.06224068570084249,-0.10703747479701108,-0.26006732102872077,0.13688583997720838
0.24749163879598662,-2.25621062457367,0.005839775009899628,0.08911914732720512,-0.15351237389982975,-0.010804198414408384,-0.008420116995233179
0.25418060200668896,-2.2399140102122432,-0.004099505197078465,0.10986789462354522,-0.1893715909183617,0.4140012636938533,-0.2548395223930015
0.2608695652173913,-2.22252540161236,-0.01375768450833387,0.12996095713190914,-0.22408570694334623,0.8264345111661187,-0.4941648547669685
0.26755852842809363,-2.203877344707866,-0.022212679945512907,0.15028506975514244,-0.2591996168807284,1.1966921438591833,-0.7090027642604579
0.27424749163879597,-2.1846614003727844,-0.0298842708350486,0.1716475682867679,-0.296118514884467,1.5424909219922194,-0.9094086795606192
0.2809364548494983,-2.165629532945576,-0.036308276509135456,0.19531635696221641,-0.33704171655976906,1.8622521104206053,-1.0945031836677077
0.28762541806020064,-2.146390640520412,-0.04253118905860397,0.22073627687929728,-0.3810209052510122,2.135866152264192,-1.2527186999753663
0.29431438127090304,-2.125445173028116,-0.0514626016841234,0.24825533950631803,-0.42865995037776594,2.3087555279302214,-1.3527400752983485
0.3010033444816054,-2.105868391703134,-0.055403611974708604,0.25721275609505556,-0.444174558032652,2.5397808952775276,-1.4866073242140427
0.3076923076923077,-2.0884852436681864,-0.04953787448984949,0.2303215865827951,-0.39762180010045733,3.0773798894375477,-1.7982501832644084
0.31438127090301005,-2.0681945268455,-0.04473038609380194,0.20114188502606525,-0.3470693020014113,3.8767624235081977,-2.26374282984942
0.3210702341137124,-2.045883616950491,-0.04346122836478843,0.1808432257093334,-0.31178213074249816,4.76193405499207,-2.785634283512334
0.3277591973244147,-2.02188440953062,-0.0503475895556864,0.17763260428594546,-0.30562995013179756,5.765916279629987,-3.3969898326059496
0.33444816053511706,-1.9987788862283202,-0.07336731493252331,0.24676930343026846,-0.40167800014307503,6.877222918585702,-4.124328289769143
0.3411371237458194,-1.9765154581319846,-0.1561312300646877,0.6168329799622974,-1.1371724357510178,9.029234114736056,-5.166073200794475
0.34782608695652173,-1.9535084009545445,-0.9652243025882115,10.173908842733217,-24.96374064934864,18.1389896823001,-9.54119089048882
0.35451505016722407,-1.930809746401158,-0.22410173153274016,-2.9508640780390873,5.783508372393452,12.657004690276748,-6.178679129727429
0.3612040133779264,-1.9110223669534914,0.05766625884754811,-0.6972858727584783,1.3666710343223212,3.632915405489735,-1.7651505134998065
0.36789297658862874,-1.8930709340707315,0.11543721399761833,-0.29145205827318216,0.5589191051083138,0.933306019270677,-0.27578885173400214
0.3745819397993311,-1.8736531638098706,0.14626240643104743,-0.1589450119513378,0.29241810700054366,-0.6762227792878897,0.5067173884309072
0.38127090301003347,-1.8535661923860758,0.16725703197487066,-0.10800116678882493,0.1910163356016673,-1.6700816542438437,0.9879991906604793
0.3879598662207358,-1.834050846028375,0.18408204067576658,-0.0875713202262209,0.15178329856201547,-2.276713752763,1.2994739666366268
0.39464882943143814,-1.8173853577472867,0.19326564591013842,-0.08295454051361284,0.1350794237796989,-2.471437969751247,1.4315517843706007
0.4013377926421405,-1.8014672989270117,0.20025152771700855,-0.08160949316101987,0.12981272535093663,-2.4619603648889044,1.4426314031710157
0.4080267558528428,-1.7854015596786432,0.20758437941603228,-0.08189941529434101,0.1350683035438418,-2.354887474344186,1.3775812997043153
0.41471571906354515,-1.7692888588590754,0.21592612093542782,-0.08920590061879335,0.149239491516584,-2.2665743990488236,1.3284105813586842
0.4214046822742475,-1.7533222412070237,0.2255899156621709,-0.10082826231291415,0.17055188110194405,-2.1933531923785603,1.2860101124711143
0.4280936454849498,-1.7375037062700744,0.23636065644938692,-0.11399873864763524,0.19442258804454748,-2.115034511868695,1.2394399566929224
0.43478260869565216,-1.721863923076914,0.24825623496928706,-0.12765578596720464,0.21903553936224773,-2.018959082599215,1.181926175203895
0.4414715719063545,-1.7064265513592074,0.2612808951672696,-0.14085927744849153,0.24277836593563318,-1.892953894689361,1.1069238776393724
0.44816053511705684,-1.6912970798772304,0.27586108992580005,-0.15164516177733256,0.26225027267012274,-1.6980431231850108,0.9926400702764383
0.45484949832775917,-1.6765102498505784,0.29192184122892945,-0.15790652369009767,0.2738861579360414,-1.395270105370022,0.8176741760835631
0.46153846153846156,-1.6621510284235268,0.30945890461306946,-0.1589298696064451,0.27659181778371483,-1.0091757191542243,0.5975335241406156
0.4682274247491639,-1.6482926413781271,0.3285886211302885,-0.15396831682531512,0.26914995015398374,-0.5443379093133424,0.33570989948623053
0.47491638795986624,-1.6342281986025873,0.3524489341162494,-0.1487190730524067,0.26319310814074703,-0.4232695983786301,0.29169968937639107
0.4816053511705686,-1.620149630910941,0.3800373929723267,-0.13361372901563798,0.24561968140908957,-0.4168669911696397,0.34969096296732893
0.4882943143812709,-1.6061547886926033,0.4118458988533324,-0.10510382481493653,0.21277621817979567,-0.5092917616659853,0.5056560723694362
0.49498327759197325,-1.5933865586991571,0.45558682182555993,-0.02448126440430949,0.12812422433377843,-0.7158369939573018,0.8213493739891455
0.5016722408026756,-1.580772770219819,0.5089508752770422,0.1696708350588953,-0.18319013667915499,-1.1823841481305872,1.0287592487156012
0.5083612040133779,-1.5683258225571275,0.5727106500934778,0.48646716731375467,-0.7393644024879017,-1.92980742053423,1.1191921857551705
0.5150501672240803,-1.5562953618482382,0.7358971910337768,2.5590954337639786,-4.367563267078234,-4.375688746554738,2.51890016992936
0.5217391304347826,-1.5443961081687307,1.2390171466531037,-2.4201830454595674,4.554042844574096,-7.893300247579035,4.549368320580683
0.5284280936454849,-1.5328044490865902,3.3575652404201093,-44.10191610068008,78.74850056299668,-15.346764220735173,8.637526566798684
0.5351170568561873,-1.5212425227659647,3.7506493253799738,-52.52037791445889,93.63650684054048,-17.716191767774546,10.00078774876861
0.5418060200668896,-1.509721159065692,1.7897865196294305,-15.559757050193646,27.616284226751702,-13.14977383995554,7.646635562999255
0.5484949832775919,-1.4986295743396723,1.0971649146907396,-2.6479355768721327,4.62352164143723,-11.005039134439388,6.340232005569634
0.5551839464882943,-1.487751075943958,1.033342947735297,-1.65961599047643,2.963965446140584,-10.060985760297243,5.553306886291786
0.5618729096989966,-1.477554632960909,1.0520885365825792,-1.3714911420260805,2.442999937058419,-9.377978284138287,5.342282760532182
0.568561872909699,-1.4675177356646973,1.090148241491966,-1.2471551123590183,2.1883723672186317,-8.756034390668272,5.265972791210352
0.5752508361204013,-1.4586159999055992,1.1716006169630584,-1.233542566393705,2.1522126626236555,-8.46790675678463,5.201968717407168
0.5819397993311036,-1.4500042691476152,1.264138719939148,-1.2482170641349115,2.17186596034801,-8.265060716373082,5.141108488005788
0.5886287625418061,-1.441919932065585,1.3746875764531754,-1.290020492421406,2.240329603610884,-8.10417372205332,5.088148267365568
0.5953177257525084,-1.4344819827049697,1.507310891708645,-1.3650738597934626,2.368616505044283,-7.994712851012226,5.044870507655593
0.6020066889632107,-1.4270440333443544,1.6399342069641145,-1.4401272271655192,2.4969034064776827,-7.885251979971132,5.001592747945617
0.6086956521739131,-1.418252474510439,1.7490894745528949,-1.6171507961513525,2.8020402024425266,-7.734772978781359,4.930627751797274
0.6153846153846154,-1.4089645753889926,1.849639499819987,-1.8315647056947186,3.172024156493219,-7.569253487026496,4.849510425035242
0.6220735785953178,-1.398117817583217,1.9070470806563982,-2.264394656148937,3.9207325894356044,-7.35979996784534,4.740241537096197
0.6287625418060201,-1.3860230825016118,1.9299160655222511,-2.872082185724102,4.972636910631787,-7.115174134191501,4.608435321700068
0.6354515050167224,-1.3715318753957435,1.8037952322990636,-4.4644420405095495,7.730170990708174,-7.0275071333052495,4.568026136432534
0.6421404682274248,-1.3570243697078033,1.6132935031632254,-7.987959199880504,13.832736896669168,-7.242122467588429,4.700216876842224
0.6488294314381271,-1.3428677218050278,1.342315322039249,-15.270187756640693,26.445458227863714,-7.773246742630629,5.015334979445079
0.6555183946488294,-1.329394622408502,0.7154362401002572,-41.66056254406592,72.15203222096012,-8.81014278574103,5.641395322064427
0.6622073578595318,-1.3165508745436907,0.23195550873806814,-9.56747210408129,16.565904393355225,-6.179017825351371,4.122379354164555
0.6688963210702341,-1.3041298453168473,-0.15520837522164088,61.807402074829575,-107.05582959712602,-1.0841809893220518,1.1625728413532315
0.6755852842809364,-1.29332235259904,0.4847164844911123,39.88259275285258,-69.08170051604725,1.9040982683895007,-0.5688403165811657
0.6822742474916388,-1.282779199104692,1.081224333568613,16.97135070937152,-29.399061256876152,4.698149246798753,-2.188123963052898
0.6889632107023411,-1.2743640848358042,0.945727329245796,11.954438700623044,-20.709555955251723,6.201204757629563,-3.065735228308643
0.6956521739130435,-1.2659489705669162,0.810230324922979,6.937526691874565,-12.02005065362729,7.7042602684603745,-3.9433464935643885
0.7023411371237458,-1.2562231916360063,0.6525070109795265,4.485910494531385,-7.77377683828887,8.732197753992535,-4.555648265693676
0.7090301003344481,-1.2459087358647687,0.48480088900077284,3.186480875892441,-5.523152671546072,9.546738948299444,-5.048787937364977
0.7157190635451505,-1.2340561778682704,0.31106915745835284,2.5658356190637543,-4.4484218505521955,10.097311431685329,-5.404482100422306
0.7224080267558528,-1.2208557548291983,0.14954406665827788,2.2681547371271,-3.9333925644166734,10.556142986356079,-5.716278919119328
0.7290969899665551,-1.2008609538184745,0.11328628086690501,2.75473584910414,-4.7777246579784975,11.105864568422634,-6.111192411467467
0.7357859531772575,-1.1811030233458546,0.0634093260338178,5.451273546087403,-9.440014321018632,12.22196988117839,-6.830619348496758
0.7424749163879598,-1.1635630293811057,-0.0839754725385577,16.290624862714218,-28.214879169661835,15.237104529292024,-8.649333474227038
0.7491638795986622,-1.1446625433678927,-2.284308651169911,1.498164807558691,-2.593340833381582,1.9622493712911258,-1.0540721459178837
0.7558528428093646,-1.1252115503781845,-0.25357908991069733,-8.368148888670694,14.496124991890456,0.19080024958294867,-0.09253396255266128
0.7625418060200669,-1.1050857761896864,0.2847023899356843,-3.1230794496135506,5.412374848508479,-2.255744125141518,1.2818071486349418
0.7692307692307693,-1.0846049614905666,0.3265623483927734,-0.6283385704374433,1.0926846445950043,-3.2893162149391926,1.863252828971523
0.7759197324414716,-1.0641238864376863,0.3491228333197702,-0.08763748956021894,0.15762040896941887,-3.4069017198933134,1.930168403592925
0.782608695652174,-1.0438710231491035,0.36316378443671593,0.10203932923680595,-0.16953431351082088,-3.2107680796520186,1.8221043400906887
0.7892976588628763,-1.024287037819351,0.36928028564963533,0.1869191506427501,-0.31542902279712287,-2.8565972891893763,1.6241247844938789
0.7959866220735786,-1.0064446777815774,0.36270323780603503,0.2374319443975335,-0.40215401913955634,-2.442021571997246,1.3903991101174327
0.802675585284281,-0.9876235067935634,0.3572542061373034,0.26578447997606663,-0.4507343030926938,-2.0373300234385736,1.161933329395565
0.8093645484949833,-0.9673075701977502,0.35525946201986147,0.2682299897732242,-0.45471990739892265,-1.6720886197254703,0.9557050996393235
0.8160535117056856,-0.9459284045157461,0.35484937228126556,0.250419932807457,-0.42392697646795874,-1.36116763864151,0.7801224909799827
0.822742474916388,-0.9236617513396989,0.35513261122097006,0.2220475351047316,-0.37511498516280545,-1.1062542002851266,0.6361708275407811
0.8294314381270903,-0.9006614121067715,0.3560445972477867,0.18955562915958638,-0.31937730685736193,-0.9020033790841654,0.520822676106566
0.8361204013377926,-0.8768668194398647,0.35722777097967434,0.15651847255110948,-0.2628371728323355,-0.7421556836147843,0.4305111760670509
0.842809364548495,-0.8523644337592066,0.3590497534529332,0.12483547384672398,-0.20869850033767043,-0.6163219558477696,0.35935411368808373
0.8494983277591973,-0.827196224884164,0.36145123507589344,0.09505214457777715,-0.15784865071749948,-0.5158021880850272,0.3024484523406516
0.8561872909698997,-0.8013536571157271,0.3645587282403069,0.06724357681596246,-0.11038266628157112,-0.4351225324425433,0.25673050968458694
0.862876254180602,-0.7747938732749654,0.368331469468566,0.04147314543158563,-0.06639697509318669,-0.3714091300440026,0.2206278288888481
0.8695652173913043,-0.7475570224370588,0.373113036870247,0.017504062583506577,-0.025534025850537566,-0.32091479300334025,0.19209660488336847
0.8762541806020067,-0.7196939321807073,0.3787594646459374,-0.005029009930054012,0.012549253551094916,-0.28031004413810373,0.16932480165868988
0.882943143812709,-0.6910577402832805,0.38555317403576034,-0.025836139133757326,0.03838868978170319,-0.2572169314787927,0.15568678653294798
0.8896321070234113,-0.6617606238437989,0.3937452496629451,-0.04348595556312848,0.09084379842198574,-0.21557338394483305,0.13832855107915157
0.8963210702341137,-0.6317199919346331,0.40335696538113147,-0.035016141585694785,0.15599094245144876,-0.16091423616442788,0.1400939989472075
0.903010033444816,-0.6009854199107254,0.4149108200097438,-0.10051769642712559,0.16833699163066826,-0.1756533393401148,0.10384720112762977
0.9096989966555183,-0.5695418378877702,0.42863207657680585,-0.1232474932329711,0.20637150651982028,-0.1610318337487936,0.09539364866916085
0.9163879598662207,-0.53737500326996,0.4448134992260771,-0.1469598491811937,0.24558406345073464,-0.14939681314567582,0.08868847671693798
0.9230769230769231,-0.5044651947428379,0.4648412838708086,-0.17306593527915515,0.2873690638429328,-0.1420263125294244,0.08430295218400595
0.9297658862876255,-0.4709076021224736,0.4887231062740822,-0.20512845089316198,0.36729160573868236,-0.16905282620347445,0.07520589222163086
0.9364548494983278,-0.43670595883805424,0.5182498232427104,-0.20745639242661001,0.3593248192445349,-0.11705191058908929,0.06757989475672589
0.9431438127090301,-0.40194307159775855,0.5555725195658701,-0.22680254339005945,0.3928336131394563,-0.11015194392069083,0.06359622122256325
0.9498327759197325,-0.3668960660504036,0.6029746857038571,-0.23899674310403438,0.4139546086445528,-0.10381948305383328,0.059940189212096706
