# n,energy,berry,bcd_x,bcd_y,qmd_x,qmd_y
0.0000015,-3.249995617185573,-0.000000000000000025320581625050545,0,0,0,0
0.006688963210702341,-3.2018978459096195,-0.0000053597113087902085,0.000000000000000000022569011748505165,-0.000000000000000000001960793606972788,0.000000000000000000002108973757057151,-0.000000000000000000006455226126717523
0.013377926421404682,-3.154812019457649,-0.00004062320588643756,0.00000000000000000018287220796274875,-0.00000000000000000007641519502502815,0.00000000000000000008950328917187983,-0.000000000000000000044037501608674917
0.020066889632107024,-3.108691545811109,-0.00013798157605831636,-0.0000000000000000002493272605050027,0.000000000000000000232413924444065,0.000000000000000000018774697642697146,-0.0000000000000000000917064274138923
0.026755852842809364,-3.0634190494981928,-0.00033381667122828337,0.0000000000000000003197327670390546,0.0000000000000000010280902519768478,-0.0000000000000000000679330407873625,0.0000000000000000000653632285541468
0.033444816053511704,-3.019051553900165,-0.0006696734695884772,-0.0000000000000000006406836487442157,0.000000000000000000851847098176978,-0.00000000000000000013073049727504365,-0.0000000000000000018756560268342753
0.04013377926421405,-2.9755868352839427,-0.0011924262253326149,0.000000000000000001624883266782355,-0.000000000000000006318653296710778,0.0000000000000000004973393201619838,0.000000000000000002836004764716084
0.046822742474916385,-2.9331435176829888,-0.001957287956930158,-0.000000000000000004018633642548795,-0.0000000000000000009099114618629123,0.0000000000000000027394336096960963,-0.0000000000000000006837409748156161
0.05351170568561873,-2.891395853909971,-0.0030245070881711657,0.0000000000000000033599380328510987,-0.000000000000000006763923013448316,0.000000000000000007443202450756344,0.000000000000000008498984508547835
0.06020066889632107,-2.8507413929023397,-0.004463643842414012,-0.0000000000000000089518264820813,-0.000000000000000023114655058639126,0.0000000000000000036221726014338385,0.000000000000000004009978937823903
0.06688963210702341,-2.8107733679734945,-0.006352022360532119,-0.0000000000000000058339147266835854,-0.000000000000000009740609556168082,0.000000000000000007663839360323646,0.0000000000000000025051631460006714
0.07357859531772576,-2.7717972501565487,-0.008785063258977627,0.000000000000000025217916907064123,-0.00000000000000004877715337028584,0.000000000000000007185051684820766,0.000000000000000006793875516372969
0.0802675585284281,-2.740834230845003,-0.011196952025477595,-0.000000000000000009940844246569214,0.0000000000000000004755274858782477,-0.000000000000000007970988798143495,0.000000000000000038255678839526973
0.08695652173913043,-2.719780735666247,-0.013162842805728152,0.00000000000000003201265983341923,-0.000000000000000034170863686575103,-0.000000000000000014510420492312405,0.000000000000000009007069475900339
0.09364548494983277,-2.6988949803239333,-0.015379538160646288,-0.00000000000000003679175700311043,-0.000000000000000021312936282069368,0.000000000000000040128416376406455,0.000000000000000008281260716910862
0.10033444816053512,-2.6782456063847153,-0.01788574468413335,-0.000000000000000010162396057514112,-0.00000000000000003298115232602252,-0.00000000000000002966985325338753,-0.00000000000000001750148306957015
0.10702341137123746,-2.6579062686584107,-0.020701517839907237,-0.00000000000000004140586420576306,-0.00000000000000001960771471812488,0.000000000000000016328779938634112,-0.00000000000000003704845413219711
0.11371237458193979,-2.6377757503002104,-0.02388955746488314,-0.00000000000000004090271077853031,-0.00000000000000007587472495001946,-0.000000000000000012794144966437623,-0.000000000000000017830116421038167
0.12040133779264214,-2.617804316629587,-0.02745273377030842,-0.000000000000000002848326948992748,-0.0000000000000000030211772320901485,-0.000000000000000006936574180724387,0.00000000000000000721873989789401
0.12709030100334448,-2.5982366251224973,-0.03144549528864046,0.00000000000000007575681228894493,0.00000000000000009168504030986444,-0.000000000000000083976489697918,-0.000000000000000019682680489284165
0.13377926421404682,-2.578919872657001,-0.035906138350635684,-0.000000000000000019225784670197237,0.00000000000000018596616804477175,-0.00000000000000005267661803038042,-0.000000000000000040148278356990155
0.14046822742474915,-2.559770740217954,-0.0408945047431942,-0.00000000000000003391387677908715,0.00000000000000012220082706193192,-0.000000000000000005764014130495445,-0.000000000000000016769386217098213
0.14715719063545152,-2.5409395544436286,-0.046457027510138436,0.0000000000000000234838178077316,-0.000000000000000006393376341415864,0.000000000000000033189353120762704,0.000000000000000003872442673112738
0.15384615384615385,-2.522350967535071,-0.05265977140984187,-0.000000000000000049506233247935766,-0.00000000000000006699141044833276,0.000000000000000032039001314646295,0.0000000000000000006050962946284929
0.1605351170568562,-2.5039639420609863,-0.05959347284903911,-0.00000000000000014634891735361764,-0.00000000000000002872816487651701,-0.000000000000000004082563519232221,0.000000000000000016234780914020766
0.16722408026755853,-2.485997762445412,-0.06730278741952356,0.00000000000000014544711337536611,0.00000000000000005268560372032659,0.000000000000000024094155042409823,0.00000000000000006615557741064777
0.17391304347826086,-2.468190292485867,-0.07605008766686988,0.0000000000000001667812071587439,0.00000000000000003963840531409459,0.00000000000000006286396290053947,-0.00000000000000021425517691324648
0.1806020066889632,-2.4508581423052536,-0.08596144400074841,0.00000000000000009029411061947256,-0.000000000000000025932863452197254,0.00000000000000013481028383663153,0.00000000000000011658540516893863
0.18729096989966554,-2.4338023524664485,-0.09713010780622604,-0.000000000000000009869924447450294,0.00000000000000006908628464557072,-0.000000000000000013167069276964025,0.000000000000000012296164892407727
0.1939799331103679,-2.4170003473483015,-0.10973949532396383,0.000000000000000040088998549264084,0.00000000000000010908853720492058,-0.00000000000000010547018340942428,-0.000000000000000026086030856205242
0.20066889632107024,-2.4005043390334966,-0.12393265498606913,0.00000000000000021074785765936604,-0.00000000000000003098350137952456,0.000000000000000020690139171607416,0.0000000000000002548352552600545
0.20735785953177258,-2.384598812462488,-0.140197714303165,-0.00000000000000003463507332375573,-0.00000000000000023193245144718886,0.00000000000000022708207074973854,0.00000000000000024521504732478105
0.2140468227424749,-2.3691326941186257,-0.15944116616386822,-0.000000000000000010421609533057624,-0.00000000000000014962281092106028,0.00000000000000004154196811735692,0.0000000000000003022552663345949
0.22073578595317725,-2.3540864339474195,-0.18176203185114886,-0.00000000000000021446791529038842,0.00000000000000006621572891298823,-0.00000000000000014585583939858443,0.0000000000000003016417140403406
0.22742474916387959,-2.3394709056080933,-0.20743376065905797,0.000002004891222046209,0.00000000000000037192687827757115,-0.00000000000000023836020719236087,-0.0000013890171081969364
0.23411371237458195,-2.328458245531246,-0.2738668694808408,0.00021743981106616488,0.0000000000000005224478540358208,-0.0000000000000001361531568284156,-0.00015064538873087716
0.2408026755852843,-2.317771326420535,-0.3435941330483749,0.0004429148390864104,0.0000000000000006456300429950749,-0.00000000000000003610592391586999,-0.00030703246211384057
0.24749163879598662,-2.3105142006922104,-0.44800622696291326,0.0007741042234840193,0.0000000000000004809565435599094,0.0000000000000000412001484671356,-0.0005385001555343128
0.25418060200668896,-2.303257074963885,-0.5524183208774517,0.001105293607881628,0.00000000000000031628304412474386,0.00000000000000011850622085014121,-0.0007699678489547853
0.2608695652173913,-2.2955996376063714,-0.6531873134256071,0.0014670400173607838,0.00000000000000008927521279171639,0.0000000000000001204328940405496,-0.001022698690485838
0.26755852842809363,-2.2859772154981868,-0.7360736412992547,0.0019787797918410233,-0.0000000000000004437092694588431,-0.00000000000000024765059267448127,-0.0013798026222346439
0.27424749163879597,-2.276354793390002,-0.8189599691729024,0.0024905195663212625,-0.0000000000000009766937517094028,-0.0000000000000006157340793895123,-0.0017369065539834497
0.2809364548494983,-2.264992658609567,-0.890931098426097,0.003173710211183634,-0.0000000000000016569359637845198,-0.0000000000000009930995060771197,-0.0022122846216331266
0.28762541806020064,-2.2534557696501234,-0.9617346478168312,0.003879026592125399,-0.0000000000000022048734054458386,-0.0000000000000011693917813639057,-0.0027027216576406485
0.29431438127090304,-2.2409999377602148,-1.0262228217694496,0.004712798006309707,-0.0000000000000016938945006996214,0.00000000000000021042382582384736,-0.003280193647234961
0.3010033444816054,-2.22824411221529,-1.0886812537806694,0.005597897087777177,-0.0000000000000007565520468678596,0.0000000000000007603796024193061,-0.0038914119755781643
0.3076923076923077,-2.215064993604806,-1.1482757062566464,0.006555419853109345,0.0000000000000007823922432610193,0.00000000000000013939757482325423,-0.004550246614938533
0.31438127090301005,-2.201417081482352,-1.2048669335659166,0.0076007780839361504,0.0000000000000017192059733165106,-0.00000000000000008992923158301738,-0.0052641135818722855
0.3210702341137124,-2.187528220041192,-1.2599114963097853,0.00869103015346586,0.0000000000000013741267963988489,-0.00000000000000012398385679491892,-0.006004768526990085
0.3277591973244147,-2.1732876158593655,-1.3126943583996378,0.00984650422965103,-0.0000000000000020594177664137187,0.00000000000000011947656898911853,-0.006782654868948487
0.33444816053511706,-2.1587501664862394,-1.3634529628573764,0.011052413872152354,-0.0000000000000014231516557151817,0.00000000000000002799109550708335,-0.007583291382045882
0.3411371237458194,-2.144023516265539,-1.4129711511547849,0.012284404841285719,-0.00000000000000030921853541373505,-0.00000000000000029873056652579003,-0.008391376239242155
0.34782608695652173,-2.129084401435554,-1.4611395726917165,0.013540425624810446,-0.0000000000000004937861456296433,-0.0000000000000009084712761472287,-0.009201711026927146
0.35451505016722407,-2.1138348851585897,-1.5079326676201157,0.014374165752050068,-0.0000000000000010210760945597298,-0.0000000000000002038715429176419,-0.010134130779973518
0.3612040133779264,-2.0985256972306234,-1.5532167642051726,0.015453294085268113,-0.0000000000000010862035053540123,0.00000000000000034828336395392246,-0.010955365559814339
0.36789297658862874,-2.0831558168203146,-1.5970405456541252,0.016763765227760852,-0.0000000000000006284944673786069,0.00000000000000040663797872594014,-0.011657231419079471
0.3745819397993311,-2.067601417195025,-1.6395201323186186,0.017968730746944047,0.00000000000000032389788580163965,-0.0000000000000009685796612065433,-0.012293958061982831
0.38127090301003347,-2.0518538197894807,-1.6809623498643276,0.01909710133907268,0.0000000000000005766884342077901,-0.0000000000000011252869249945302,-0.012830307433392925
0.3879598662207358,-2.0360855214154028,-1.7212149577065112,0.02015064034492806,0.000000000000000051777522250583853,-0.0000000000000010178377518909866,-0.013257164859029199
0.39464882943143814,-2.0203225042092567,-1.7601869691311858,0.021130565399121386,-0.0000000000000010794279291950622,-0.0000000000000009920558381332967,-0.013559370086005586
0.4013377926421405,-2.0042791387503773,-1.797754783600498,0.022050217108601087,-0.000000000000001190870507787658,-0.0000000000000010324604479261984,-0.013659777392884516
0.4080267558528428,-1.9884252004825804,-1.8335492678065826,0.02300358236010595,-0.0000000000000009765344423845736,-0.00000000000000038526670489290163,-0.013546316506469824
0.41471571906354515,-1.9725928311531415,-1.8681774122082058,0.02429308067301189,-0.0000000000000007165013197897069,-0.0000000000000006952388929027701,-0.01326377845773604
0.4214046822742475,-1.9567368889886736,-1.901624277703577,0.02685632258019306,-0.0000000000000008152445104561104,-0.0000000000000019851352026867666,-0.012965493428108427
0.4280936454849498,-1.9410010213677558,-1.9323749549466167,0.036419928852243585,-0.0000000000000033719229667702146,0.0000000000000004199322251969049,-0.01365643280616153
0.43478260869565216,-1.925360619228061,-1.9608619731312522,0.01659024076576935,-0.000000000000002642359343403857,-0.0000000000000011193024925708971,-0.006218771415400059
0.4414715719063545,-1.9098039543409264,-1.9875092139711465,-0.0005118332846821911,-0.0000000000000012646404577693314,-0.0000000000000016275067573696572,-0.00033981604162266555
0.44816053511705684,-1.8943380620430408,-2.012308748424167,-0.0005221305267047279,-0.0000000000000005402789742312198,0.0000000000000010357833365018159,-0.00035397728374984746
0.45484949832775917,-1.8791587685180398,-2.032538268573462,-0.0005330374777146547,-0.000000000000002788282500089842,0.0000000000000016373535339379592,-0.0003678542122353219
0.46153846153846156,-1.8847883136661747,2.172452737811182,-0.006971806855437564,-0.00018888623029565113,-0.015747901025299525,-0.022895806834572752
0.4682274247491639,-1.8704430960585487,2.184347680134278,-0.007976339756645728,-0.00008356798503607678,-0.012280081451485651,-0.02384016683335987
0.47491638795986624,-1.856441013497816,2.194493482447228,-0.009106134422983397,0.0002513533364426826,-0.009538973990188963,-0.025217798383539637
0.4816053511705686,-1.843017765967517,2.197227280749124,-0.010312832404403623,0.0007504866704714727,-0.007050860945775907,-0.026600012821950597
0.4882943143812709,-1.830458349565832,2.1860266874593215,-0.011512468037897424,0.0013194664756046607,-0.004807004369454751,-0.02791902075391373
0.49498327759197325,-1.8231777822290849,2.081247455329405,-0.012311643045603057,0.0018013990289524875,-0.0036648424261679284,-0.02864634493866962
0.5016722408026756,-1.8158972148923378,1.9764682231994883,-0.01311081805330869,0.002283331582300314,-0.002522680482881106,-0.029373669123425507
0.5083612040133779,-1.8079498430889098,1.8813671513739263,-0.014020482846429178,0.0028688423557564112,-0.0014153025759763263,-0.030121024910953288
0.5150501672240803,-1.7980804392259966,1.8141629148446266,-0.015248629174129192,0.0037529124065723072,-0.00040818799426697795,-0.030926120837688736
0.5217391304347826,-1.7878591148995158,1.7519111780564522,-0.016556680763367228,0.004708592876210298,0.00030446421367606323,-0.031766030649078986
0.5284280936454849,-1.77580462854568,1.715457129683083,-0.018280960751921232,0.006037293713055057,-0.0005167450554903355,-0.032787286809945165
0.5351170568561873,-1.7630882540022363,1.6877381694243987,-0.020273470284520766,0.00743708658329767,-0.0035843512169979074,-0.035656781031064975
0.5418060200668896,-1.7495449453971517,1.6709324449763467,-0.022601094040023913,0.00892569872067782,-0.009458507087967163,-0.040835382787325125
0.5484949832775919,-1.7347801181111455,1.6694963347923508,-0.026279443242757324,0.011820469310220183,-0.021652409680468828,-0.056482510748509664
0.5551839464882943,-1.7195304591406904,1.6788278589472878,-0.031227724218720943,0.01626752725065988,-0.029303725488088617,-0.06852472035557301
0.5618729096989966,-1.7038216281665037,1.7001939196697595,-0.04126800855259465,0.02449766259922358,-0.03122677812245311,-0.07853734407723095
0.568561872909699,-1.6876198622816265,1.7360409948927196,-0.06770690191943168,0.04282548409413199,-0.028644523737350224,-0.09694854703757455
0.5752508361204013,-1.6970622853970827,0.5478959471947521,-0.31369014074336476,0.554778458121106,-1.988758183527411,1.1544561062702543
0.5819397993311036,-1.679337322153443,0.5450589645565861,-0.28689033500282957,0.506900485433437,-1.2860439827857912,0.7511736898939558
0.5886287625418061,-1.6616673801138884,0.5444125922987276,-0.2383364172280375,0.42146074176043913,-0.3428668004311418,0.21521893023170852
0.5953177257525084,-1.6437677172835516,0.5470991926173198,-0.1750897158871009,0.3120382715627503,0.4349472520445692,-0.2097501167981766
0.6020066889632107,-1.6249385955942792,0.5548765546328985,-0.09565458713827948,0.18293326751639008,0.5577044036923526,-0.21079234860735618
0.6086956521739131,-1.6055932868778873,0.5724166248006801,0.05591513525401924,-0.04558420182112281,0.3128109816052101,0.09816311221398658
0.6153846153846154,-1.5871611928149632,0.609704725857307,0.409526475064406,-0.5950584202938356,-0.3141851266616093,0.6569173906259885
0.6220735785953178,-1.5685528702445957,0.6811740896042877,1.6637587335198103,-2.710795398566961,-2.9149765842205393,2.0207184286315094
0.6287625418060201,-1.556762677301801,2.0591028928929274,0.755656621455723,-0.024896489130293884,0.12124878763590488,5.077507472629297
0.6354515050167224,-1.5351634115910655,2.2509424269142047,-0.2115626999057556,-0.039415053941173804,-0.006192826477393984,6.36882616516868
0.6421404682274248,-1.51463708206387,2.3313467368612213,-1.5942804435089175,-0.06131364136846253,-0.008763945949866056,7.87490614903852
0.6488294314381271,-1.4938317346186243,2.397149647913532,-2.832235737621972,-0.08150854075551173,0.00852298025075943,8.890618326462242
0.6555183946488294,-1.47270489277518,2.4499831203022286,-3.664737523366563,-0.09063412284382262,0.02315291182129237,9.140809588428992
0.6622073578595318,-1.4511976125394748,2.4896828965292137,-4.023988170814234,-0.08004959825336946,0.014083239639650674,8.491460543148063
0.6688963210702341,-1.4292307545484482,2.5267587981157646,-3.765142938821437,-0.0642800912861037,0.0005304308350592284,7.081029026623408
0.6755852842809364,-1.403231511114752,2.589345260356435,-2.720180656935767,-0.047359760913161866,-0.009220523707748934,4.9312330956995645
0.6822742474916388,-1.375229312003753,2.6829690944652342,-1.1845842875915669,-0.033532598725879444,-0.014563589831083327,2.793893126909082
0.6889632107023411,-1.3436072320960954,2.7012241978450318,-0.7540920630007623,-0.02183836799324337,-0.016396089236035784,3.1275346064890552
0.6956521739130435,-1.3057918646545548,2.2326085355985006,-0.7291024301925004,-0.012815952399453864,-0.018008079828027695,1.9465026999729298
0.7023411371237458,-1.2716102135432183,1.7987642702766298,-0.8658774817778757,-0.007054705897646524,-0.01914642022675246,1.0569667639088622
0.7090301003344481,-1.2418238836020805,1.4600199086123158,-1.1642966231467873,-0.0037704994544966366,-0.018927841524536283,0.6645744274058143
0.7157190635451505,-1.2155407304127661,1.172435867395816,-1.528920858962367,-0.0014442607341317267,-0.018668088547961117,0.5069446074853923
0.7224080267558528,-1.1942456881607089,0.8891835077024147,-2.0696905716134104,-0.000043730378102564086,-0.01807125565422459,0.49263939083515723
0.7290969899665551,-1.173797324529984,0.7027462493199632,-2.188685757517825,0.0011103080942630001,-0.017527550247036013,0.3418003203007992
0.7357859531772575,-1.1829760966700729,2.552503392743383,-0.003401896990153242,-0.0043531705913170205,0.02389161437947671,0.004452431715095936
0.7424749163879598,-1.1572675692514247,2.4298989842902845,-0.003207255178182196,-0.0033457019084755326,0.019088409296931882,0.004177510373434367
0.7491638795986622,-1.1329511794382563,2.239623651209085,-0.0029535254816734496,-0.002504487543848406,0.015172690258415384,0.003884416904479382
0.7558528428093646,-1.111018227197142,1.9362514019591204,-0.002685843817882626,-0.0018348971895713688,0.01216094151062658,0.003626563645347078
0.7625418060200669,-1.1143437533930172,1.3021920179882978,-0.0019469050492091902,-0.0000000000000002729775620281544,0.0000000000000014598398659534627,-0.0005556406581673596
0.7692307692307693,-1.088865110608744,1.3257826032123028,-0.0019745614671448737,-0.000000000000000578632401891877,-0.0000000000000016386381773840446,-0.0005325502074512832
0.7759197324414716,-1.062928474648269,1.3491949831012238,-0.0020002309619537102,-0.0000000000000006907942307168426,-0.000000000000003852811984593125,-0.0005076417563576604
