# n,energy,berry,bcd_x,bcd_y,qmd_x,qmd_y
0.00000016666666666666665,-3.2895512309337485,-0.000000034034396395782636,0,0,0,0
0.006688963210702341,-3.2421511348377496,-0.0013948314287514543,0.000000000000000002409588418691029,-0.00000000000000000422068000495257,0.0000000000000000018381792560953284,-0.000000000000000001251691456987147
0.013377926421404682,-3.1955101696732617,-0.0028250090551829882,0.0000000000000000031321179425339287,0.000000000000000002569838272277477,-0.0000000000000000010691468392470361,-0.0000000000000000004618534569177447
0.020066889632107024,-3.14956109057268,-0.0042616741065364975,0.0000000000000000022636385498215795,-0.000000000000000009599347255791159,0.000000000000000005728632508331871,0.000000000000000004651486893270205
0.026755852842809364,-3.104407808194993,-0.005676904791998372,-0.0000000000000000004712596856057309,-0.000000000000000006792253015792725,-0.00000000000000000658832217609598,-0.0000000000000000007397754394198699
0.033444816053511704,-3.0599255633579716,-0.00704454077191649,0.0000000000000000023201689945646308,-0.0000000000000000006379984646513839,0.0000000000000000025293687980140383,0.000000000000000002440837322830989
0.04013377926421405,-3.0162683674528212,-0.008340521945943742,-0.0000000000000000015442162867859275,0.0000000000000000026400649532695945,0.000000000000000011645014460006625,0.00000000000000000895146195725148
0.046822742474916385,-2.973289328637417,-0.009546957600603503,0.0000000000000000065151312332704456,-0.0000000000000000008613331216222336,-0.00000000000000004192415796568522,0.00000000000000000817770254039649
0.05351170568561873,-2.931030949154025,-0.010648520957024642,0.0000452195945769041,0.000005007196715945719,0.00015207746117789053,-0.00008809859662890284
0.06020066889632107,-2.8895835425170335,-0.011643280037645398,0.00009946536797371512,0.000008085763213178423,0.00017948120246090926,-0.00006709553075586499
0.06688963210702341,-2.8488244142709727,-0.012539143556796422,0.00016734864026354544,0.00001438398728879412,0.0002122138547397297,-0.000057052124207457276
0.07357859531772576,-2.808878109115821,-0.013372431673440936,0.0002552993375000038,0.00002382414741070257,0.00022116668966420857,-0.00004605953028637126
0.0802675585284281,-2.771308199255354,-0.014105304108844767,0.00036231842945178727,0.000036333770575603515,0.00017177373188501763,-0.00003459168692031942
0.08695652173913043,-2.7462250012070517,-0.014113258809637437,0.000449857544643335,0.00004734765484844466,0.00007167231808082188,-0.00002947284661443638
0.09364548494983277,-2.7252573728429836,-0.013931575892395222,0.000532867910372052,0.000058427491982948834,-0.00007661457592990008,-0.000030532227457870706
0.10033444816053512,-2.7044995465668125,-0.01387163488747229,0.0006241675281899509,0.00007143896628953442,-0.00031015032396128947,-0.000041571464704882626
0.10702341137123746,-2.6839575473392108,-0.013995523478040724,0.0007229011288647933,0.00008665882995654995,-0.0006603730220809703,-0.00006978894262466145
0.11371237458193979,-2.6636461839585936,-0.014408605540558108,0.0008274411289127744,0.0001043622261970442,-0.0011662078409473572,-0.00012542199854751482
0.12040133779264214,-2.64355454434171,-0.015258597031476532,0.0009354602841972633,0.00012483930984770223,-0.0018753620395560375,-0.00022253407225162017
0.12709030100334448,-2.6237615033944635,-0.01671345612810514,0.0010432100837554153,0.0001482398834565733,-0.002838176520531396,-0.00037856434808622035
0.13377926421404682,-2.6042333382587457,-0.01913074727850612,0.001146474895670163,0.00017486600761263391,-0.004125010774167437,-0.0006187333503858131
0.14046822742474915,-2.5850784462021545,-0.023085531510429563,0.0012379343655035523,0.0002048753879795702,-0.005831367566266065,-0.00098213527720005
0.14715719063545152,-2.566288533256861,-0.029250308392319135,0.0013118391091261681,0.00023768678309082932,-0.007984908373124704,-0.0014926973482006114
0.15384615384615385,-2.5479878648130483,-0.039067274959871744,0.0013622552754873998,0.00027250813441317083,-0.010604348304382524,-0.0021748109563591075
0.1605351170568562,-2.5303725043573433,-0.05485257098898398,0.0013851969357913114,0.00030796952434911144,-0.013650986684964743,-0.0030358195655600367
0.16722408026755853,-2.513867084366435,-0.08107231799533453,0.0013809704948576328,0.00034208031055254915,-0.01697407647317625,-0.004041129297900257
0.17391304347826086,-2.499030974225808,-0.12337049528027427,0.001350768085896251,0.00037273117172092107,-0.020395913230882863,-0.005144833732014046
0.1806020066889632,-2.481837951044661,-0.15301224597503416,0.0012773247871446694,0.00040577618077081287,-0.02490244935900446,-0.0067153292661512876
0.18729096989966554,-2.46285126339177,-0.17306969922851495,0.0011582498821222952,0.00043716496085373515,-0.030338123621608287,-0.008744590401370425
0.1939799331103679,-2.4422416958556514,-0.18476033638085226,0.0009408747373822642,0.0004951070558026646,-0.0366511832555833,-0.011470191647214027
0.20066889632107024,-2.420278249634175,-0.18984257415685266,0.0006922224003938012,0.0005376688839589164,-0.04362352478206799,-0.014620096891366983
0.20735785953177258,-2.3970989367066435,-0.18913529394892473,0.00044496056800226756,0.0005420263000800207,-0.050929457125010784,-0.018059614645486832
0.2140468227424749,-2.3727682087116775,-0.18309995617619954,0.00017336251047236442,0.0005308939302189763,-0.0582453671179722,-0.021887078132548324
0.22073578595317725,-2.3473497245366124,-0.17204191858884935,-0.00008905689729440623,0.0004990801374882391,-0.06539295412451147,-0.025976607099133513
0.22742474916387959,-2.322172609608258,-0.14618519856361326,-0.00030484950247621227,0.00045031906779535795,-0.07210725303546307,-0.03011900856620328
0.23411371237458195,-2.303576137214419,-0.0682611580516118,-0.00043670320751783547,0.00040864273920233185,-0.07707280579212351,-0.03327424681400068
0.2408026755852843,-2.286186049118005,0.005729899504718292,-0.0005318706201635649,0.0003679265663298456,-0.08205025246649235,-0.03643034927098028
0.24749163879598662,-2.2689461173520313,0.0734749239248803,0.0021768149764878507,-0.0014173236926316064,-0.10439052814807942,-0.042216075575693505
0.25418060200668896,-2.251934480322682,0.13654544164507965,0.002714743282048098,-0.0019325311060246172,-0.12243105368151702,-0.048890955195646985
0.2608695652173913,-2.235160442976727,0.19606435021118007,0.0010443533737302026,-0.001080190148543122,-0.13366211998760347,-0.055920199723709756
0.26755852842809363,-2.218598167277277,0.25272038011991876,0.0005278684415396985,-0.0007623291192798626,-0.14868207228294378,-0.06360943196401861
0.27424749163879597,-2.2023547738509435,0.3070683089227077,0.00028871479017250065,-0.0005023221569945561,-0.16749846332574492,-0.07242231412879228
0.2809364548494983,-2.1863257160798235,0.3602792921895715,0.00016999065766744076,-0.0002581303203614317,-0.19331664134003934,-0.08209930704206589
0.28762541806020064,-2.170527539715257,0.4126161040625453,0.0001895401923922804,-0.00005070578351961461,-0.2389973107637363,-0.08757940727082872
0.29431438127090304,-2.155008811104372,0.4642626435593952,0.00039051671812593777,0.00008840581427737994,-0.32232273789379606,-0.08218626699386675
0.3010033444816054,-2.1398312670046895,0.5151781573845848,0.032161129407303216,-0.017734737838184647,-292.58392362120765,511.03759640181556
0.3076923076923077,-2.1251363201454407,0.5550135463369642,0.03288033376699383,-0.017939433587925824,-299.5685521165751,523.4497623901399
0.31438127090301005,-2.1108869293822994,0.5839991799808653,0.00025867947346258635,0.0007776886465532158,-0.05560984817702774,0.02759266287864648
0.3210702341137124,-2.0986148494807524,0.6202547570420944,0.00012234963057871455,0.0006298798601835572,-0.06206896536867876,-0.05930622742534111
0.3277591973244147,-2.086394427560099,0.6620865456946832,-0.00003482280884626099,0.00039902859921281907,-0.09544969032792737,-0.05768940663361252
0.33444816053511706,-2.0743251763873505,0.7203328648741347,-0.0002685558695362801,-0.00006749941324494168,-0.06800271550903261,-0.04023406237028712
0.3411371237458194,-2.062282031951734,0.7856094462703054,-0.0004574603435615097,-0.0004595834395864834,-0.05036043717461732,-0.029061020940329405
0.34782608695652173,-2.0502674065071997,0.8585658838064545,-0.0005973940842156029,-0.000770344879908481,-0.04342880606440931,-0.02475076506526907
0.35451505016722407,-2.038640733690816,0.9395776847786367,-0.0007122613206544395,-0.0010345661863927617,-0.03984074367454365,-0.02258492727711768
0.3612040133779264,-2.0271849280343996,1.0241373340522504,-0.0008160884401439759,-0.0012782896797000557,-0.037725299460056996,-0.021363562091303075
0.36789297658862874,-2.017023636246306,1.1180132906771072,-0.0009028056873476277,-0.001477699962348977,-0.036763509574610644,-0.02089730779000474
0.3745819397993311,-2.007139715941628,1.2138854236684054,-0.00098585685512708,-0.0016676153903841147,-0.03604890963469197,-0.020592848762829987
0.38127090301003347,-1.9974097071672716,1.3217661748743539,-0.0010707177161762619,-0.0018466162832888693,-0.03555142450885072,-0.0204624743290563
0.3879598662207358,-1.9877606430733878,1.435962461779781,-0.0011565303255653262,-0.0020198770373177715,-0.035168123740833335,-0.020423653931284237
0.39464882943143814,-1.9785668822846112,1.568976548009488,-0.0012435424497745575,-0.002180070623758273,-0.03482876319622398,-0.020431362959930553
0.4013377926421405,-1.969966006505129,1.726494719762253,-0.001332116553322235,-0.0023232484589617445,-0.034546620553333,-0.020499661488158988
0.4080267558528428,-1.9613651307256468,1.884012891515018,-0.0014206906568699123,-0.002466426294165216,-0.03426447791044202,-0.020567960016387422
0.41471571906354515,-1.9530020260884826,2.0642521419783897,-0.0015247361560214465,-0.0025913603313832286,-0.03399318807061541,-0.020705280715453914
0.4214046822742475,-1.9446533658567564,2.2458716796779834,-0.0016297215299980513,-0.0027151860725638803,-0.03372255752983607,-0.020846794455820845
0.4280936454849498,-1.9345231358674762,2.415676468124529,-0.0017723203916260816,-0.0028522859035816925,-0.033393156137056526,-0.02106245830482717
0.43478260869565216,-1.9214339246928664,2.5658583253886564,-0.0019773909032152178,-0.0030114324616019113,-0.03296614316068501,-0.021401276902854028
0.4414715719063545,-1.906692507135199,2.71852221574974,-0.00225268084179245,-0.0031489805930311997,-0.03250820087316041,-0.021894291258636032
0.44816053511705684,-1.8906846898863952,2.8751192247213098,-0.0025938138204290653,-0.0032561489305993974,-0.03204121593693431,-0.0225229781680655
0.45484949832775917,-1.8731568936057599,3.039134514062927,-0.0030305065154904625,-0.0033080416841882957,-0.0315849472146473,-0.02333665645326955
0.46153846153846156,-1.8539105863851988,3.2160951739981973,-0.003606463153438139,-0.0032630438958147095,-0.031189417681796748,-0.024390665048385336
0.4682274247491639,-1.8326983394102783,3.4114501643945516,-0.004385658895776809,-0.0030617557200241295,-0.030930233254755267,-0.025749344870616166
0.47491638795986624,-1.8092979328618646,3.6326006694155826,-0.005474311581217761,-0.002632610127613605,-0.030994845589832783,-0.027586698175105492
0.4816053511705686,-1.7829709835226677,3.895061773212831,-0.0071268612870290845,-0.0018757223902667423,-0.032753564665151044,-0.030974904335223652
0.4882943143812709,-1.7519190187858544,4.232298392386014,-0.00969474034913459,-0.00017076591111348156,-0.04008464559948217,-0.037551679213939586
0.49498327759197325,-1.7189034599936308,4.642108681489212,-0.01506852700330464,0.005043414878552777,-0.043398336588669,-0.04273055368802384
0.5016722408026756,-1.694041494379344,4.976982475027235,-0.010909249423635638,0.006243176644410051,-0.0380297770428324,-0.034919274663007
0.5083612040133779,-1.6745078720275326,5.264849872877226,0.0003520107053320362,0.0024474586320972873,-0.033339864109549505,-0.02309384371680892
0.5150501672240803,-1.65481313389042,5.57862617696223,-0.0007005025703106164,0.00393115105499775,-0.0320822665234116,-0.020204136453521714
0.5217391304347826,-1.6333308093979126,5.772952435111495,-0.002887173140422362,0.006191469143759878,-0.024965798734927686,-0.010314759676503638
0.5284280936454849,-1.6087944626297965,5.648580816157064,-0.0011867924453617207,0.006482068611715403,-0.027563425071307927,-0.016242702986524225
0.5351170568561873,-1.585687436679956,5.524920618715806,-0.0010797475641520513,0.00771985405358896,-0.027125406215015146,-0.017612777482848747
0.5418060200668896,-1.563863140753806,5.3994397571635995,-0.0013452106130434967,0.009161553464631194,-0.025952965618421506,-0.01817544662243544
0.5484949832775919,-1.5431684243939254,5.269541292028935,-0.0018367616620018252,0.010691532103943167,-0.02416268281918982,-0.01811729233783912
0.5551839464882943,-1.523497302911305,5.132721542169698,-0.0024809469884029553,0.012231526585109629,-0.0217960022419908,-0.017453143758519387
0.5618729096989966,-1.504773218731236,4.9866502036202744,-0.00321509874935931,0.013709615080167431,-0.018912032490355047,-0.016204883249091764
0.568561872909699,-1.4869318611905957,4.829182852107498,-0.0039838551830807135,0.015067867335951127,-0.015588552761529878,-0.014427606841664284
0.5752508361204013,-1.4700745087852638,4.655326255272221,-0.004731046400539821,0.016230671545056995,-0.011852152750259682,-0.012131587950637296
0.5819397993311036,-1.4542666693855557,4.453887041402918,-0.005389976095502103,0.017124483880136654,-0.007620150127680944,-0.009314198199348915
0.5886287625418061,-1.4394560578158526,4.213449502798724,-0.005951488470646336,0.017793597898155794,-0.0028281269977320717,-0.0060585183353486375
0.5953177257525084,-1.4254703515688416,3.9388904071125177,-0.0064304440898325915,0.01828133981219241,0.002440118392162771,-0.002448600335407427
0.6020066889632107,-1.4128725877587915,3.6214472614194033,-0.006750725625460739,0.018428603551906345,0.010630533315390229,0.002946997105875526
0.6086956521739131,-1.4002704645702608,3.334379167001008,-0.007041605493731794,0.018466419379807787,0.02245877437411168,0.01055798686927634
0.6153846153846154,-1.3875579338697694,3.1330777910457557,-0.007263678903219519,0.018230340936224245,0.043986671491327387,0.02407551638997025
0.6220735785953178,-1.3748037757332603,2.9352992683077135,-0.007883321268211469,0.0179350266511081,0.03884375250433149,0.027181138898287934
0.6287625418060201,-1.3620198199516906,2.7400424653729356,-0.008787550428747626,0.017597310317014704,0.014609397969959803,0.022833736689425652
0.6354515050167224,-1.3474393734077157,2.560199517844614,-0.01025669100276165,0.01754098374149543,-0.546796123712164,0.6300877951286163
0.6421404682274248,-1.3323448825918789,2.3905408624006723,-0.010516590980320185,0.016835303728280154,-0.46827174086861595,0.6551231136289839
0.6488294314381271,-1.3168705532605698,2.231910341770928,-0.009289220609834956,0.01533528356504544,0.36691047459764803,-0.03281818431135121
0.6555183946488294,-1.3015737336918216,2.082889992230205,-0.008454648448614273,0.014066987453193798,0.21665946286734447,0.05392734687281651
0.6622073578595318,-1.2865309469164046,1.9292211359815186,-0.0078135593368607,0.012939023008609222,0.15165193747800373,0.07905844168128148
0.6688963210702341,-1.2717315934197506,1.7703703983512793,-0.007257338912554782,0.011893787682862091,0.13154257711837575,0.07394664585877617
0.6755852842809364,-1.2573205653531236,1.6020320371666776,-0.006667653835771548,0.01089361863919763,0.12127281366408697,0.06895871378341639
0.6822742474916388,-1.2434437579836632,1.418490370287717,-0.00604297941517925,0.009958310724587917,0.11393176995969251,0.06479266184866266
0.6889632107023411,-1.2299446041476956,1.2243840823170793,-0.005401639388137327,0.009067350493556153,0.10789287984367579,0.06104024993098069
0.6956521739130435,-1.2173282957355553,1.005974684624467,-0.004738713749710214,0.008276823674745625,0.10324397836961306,0.05789445222048881
0.7023411371237458,-1.2056553235718235,0.7644611727640268,-0.004088062269246251,0.007573760497742349,0.099135876436801,0.05507771902123519
0.7090301003344481,-1.1949900584270194,0.49826698309404815,-0.003450522502820375,0.006964129250126765,0.0956054767755497,0.05261250482510933
0.7157190635451505,-1.185304232547843,0.20298574268679892,-0.0028344925266472927,0.006438483782636128,0.09242658983612415,0.05040767878693079
0.7224080267558528,-1.1767046467191347,-0.12455428146501879,-0.0022423178281516694,0.006005982138599479,0.08963754554452372,0.048491634356511
0.7290969899665551,-1.1681050608904262,-0.4520943056168364,-0.001650143129656046,0.00557348049456283,0.08684850125292327,0.046575589926091204
0.7357859531772575,-1.1546219917665346,-0.744811813421484,-0.0005621710958721839,0.005009848093011176,0.08234752040682027,0.04363232990821181
0.7424749163879598,-1.1394655556382518,-1.023679988632277,0.0007805323753056171,0.004450561422548246,0.07714403498767093,0.0403475182142676
0.7491638795986622,-1.1217815049687545,-1.2889832853068623,0.0026060171651526823,0.003924671497460791,0.0708191860284929,0.03655562506072123
0.7558528428093646,-1.1032440128970264,-1.582880716847959,0.0049049123820303344,0.0035747758414351213,0.063778506047782,0.0326484221436408
0.7625418060200669,-1.0838085175165453,-1.9225920751672936,0.00385722918157145,0.006344556115677332,0.050762386724343585,0.02956576615639601
0.7692307692307693,-1.056202881884013,-1.9771438713760376,0.00483960901802473,0.006015941417960895,0.047800297064949954,0.027496005191340277
0.7759197324414716,-1.0249549713454889,-1.8441480653627838,0.006231171829090735,0.005426203404019993,0.04568440686740406,0.025460384970183377
0.782608695652174,-0.9948705298071249,-1.7038845321849312,0.00776215883055145,0.004899652159456296,0.04371739436647565,0.023614415671617452
0.7892976588628763,-0.9661373905646442,-1.5541568755231059,0.009539225215949906,0.004387757759416585,0.041738580688445714,0.02191824854154967
0.7959866220735786,-0.9386580115317992,-1.3948472836951562,0.011599474701442701,0.003837330469961766,0.03954432744055356,0.020302803744224086
0.802675585284281,-0.9125726870654229,-1.2238218025764742,0.013972001917034514,0.003196986887560536,0.03688241124337494,0.018731088035570866
0.8093645484949833,-0.8881301383569206,-1.0346674615073637,0.01662939146709449,0.0024098178928212105,0.03347358356473682,0.017216477356765465
0.8160535117056856,-0.8659171930556632,-0.8148210739691522,0.019359627552101646,0.0014726985377906065,0.0293696377780685,0.015877788484504413
0.822742474916388,-0.8470607741950033,-0.5352356996577389,0.021826920267690102,0.0004869952898469091,0.025145895014181217,0.014879984034382513
0.8294314381270903,-0.8278798675222625,-0.29150600951777117,0.02441823147105733,-0.0007689248343151015,0.020192645671968112,0.014251008385253042
0.8361204013377926,-0.8065032023735066,-0.11956224962089101,0.02744824040032101,-0.0025607155971606147,0.014309585135767265,0.014322475995811157
0.842809364548495,-0.7837253156677185,0.006066486839868879,0.03178426035087217,-0.005514226037514903,0.00790758277653214,0.016358981460295005
0.8494983277591973,-0.7599634174850405,0.10295854868236179,0.04764871855969901,-0.015576672927969683,-0.0004230279960006115,0.029026134914256034
0.8561872909698997,-0.7353821762981023,0.18064180397459004,0.015569387501662257,0.001747567619004191,0.0025677355591930216,0.00421096196559857
0.862876254180602,-0.7101887554588264,0.24723235461992216,0.013389714655815805,0.0016006974985959025,-0.000006187614034367135,0.004057445312629277
0.8695652173913043,-0.6844639613890794,0.30635170188644933,0.01085547176413634,0.0015644965799811712,-0.0014927343926150435,0.003961722937705316
0.8762541806020067,-0.6582252652915197,0.3614796940285061,0.008262492900039423,0.0016021111423048628,-0.002188901494072908,0.003839424944844749
0.882943143812709,-0.6315903443609004,0.4152698076368341,0.005837006600523944,0.001682390749469615,-0.0023811313657820066,0.003663687931440404
0.8896321070234113,-0.6045641331304579,0.46943288421035734,0.0037392598143770185,0.0017850542272215637,-0.0022936881423876593,0.003446984695634625
