# n,energy,berry,bcd_x,bcd_y,qmd_x,qmd_y
0.00000016666666666666665,-3.0682677581134628,-0.0000000023670884842478014,0,0,0,0
0.006688963210702341,-3.0201644874053124,-0.00009395567584284575,0.000000000000000000434334964740544,-0.00000000000000000015338914101742784,0.00000000000000000017993837745403963,-0.000000000000000000120253339540969
0.013377926421404682,-2.9727603700886935,-0.0001715305665929718,0.0000000000000000008881896410097417,0.00000000000000000013934959008948555,-0.0000000000000000002557746144394911,-0.00000000000000000036783019828420084
0.020066889632107024,-2.9314771453730324,-0.00019529314365873457,0.0000000000000000009507577764114138,0.00000000000000000024462584824983014,-0.0000000000000000007541030906697086,-0.0000000000000000012160139822460224
0.026755852842809364,-2.906858084494305,-0.00014687515114408063,0.0000000000000000023977610755621248,-0.0000000000000000009125409381469587,-0.00000000000000000027675937781257247,-0.0000000000000000007883219226552544
0.033444816053511704,-2.8834193651973417,-0.00007564389201349063,0.000000000000000001987898588695882,0.00000000000000000007395842583076564,-0.0000000000000000007130741004435285,-0.0000000000000000004838144880804543
0.04013377926421405,-2.8601690618931497,0.00001555279309989753,0.0000000000000000025101026276332238,0.0000000000000000009814130745633834,0.0000000000000000017451502645321385,-0.0000000000000000007250398029953347
0.046822742474916385,-2.837074386270674,0.00012805931876424772,0.00000000000000000192307070791589,0.0000000000000000010764245331091484,-0.0000000000000000004864397802694271,-0.0000000000000000020955511717177934
0.05351170568561873,-2.8141392385426305,0.00026336166004332554,-0.0000000000000000001158196197228141,0.00000000000000000021094764622686263,-0.0000000000000000008995148689800133,-0.0000000000000000029824602286631127
0.06020066889632107,-2.7913914935767856,0.00042279392185120434,0.0000000000000000051360453801739795,0.0000000000000000015853653800408553,0.0000000000000000010343851326868843,0.00000000000000000004692269092163537
0.06688963210702341,-2.768791116083361,0.0006082846705763096,0.0000000000000000013283930982530673,-0.0000000000000000016773245737699469,0.0000000000000000059660217870432066,0.0000000000000000011546963852689196
0.07357859531772576,-2.7463999276557867,0.0008232423632249802,-0.000006218230997611358,0.0000037843623734791334,0.000002835739166638778,-0.000005465256955023683
0.0802675585284281,-2.724126040711215,0.0010682363901188588,-0.000054941919447094024,0.00003410102278714553,0.000026610865501053857,-0.00004798064108342916
0.08695652173913043,-2.7020493920449073,0.0013446577161329955,-0.000031745552967224305,0.000023175406517250422,0.00002308728593322945,-0.000026322871796045608
0.09364548494983277,-2.680136199286076,0.0016540421762841872,-0.00002468563161284475,0.000021638076768086888,0.00002453416979818748,-0.000019763525634689167
0.10033444816053512,-2.6583825455187657,0.00199854729074088,-0.00002043487372105696,0.000022009636361294808,0.00002674507074473119,-0.000016151147957686
0.10702341137123746,-2.636781511857513,0.002380597991919166,-0.000017051552098575522,0.000023246057296095095,0.00002912447574816829,-0.000013727863035530474
0.11371237458193979,-2.6153450986680835,0.002802181369834328,-0.000013881490698229462,0.000025033293844842707,0.0000313756010265847,-0.000011928789641518073
0.12040133779264214,-2.5940770832355504,0.0032662478547254834,0.000023047181822961,0.00000926395903485511,0.00004766159835955509,-0.00004260340435447661
0.12709030100334448,-2.5729451248970374,0.0037732548603309725,0.000029389421912022818,0.000012202385807860922,0.00004579124715601179,-0.00004625511114247165
0.13377926421404682,-2.552004786579423,0.004326337869486607,0.00002742090088326927,0.0000206006719749669,0.0000388618850227653,-0.00004161543755064264
0.14046822742474915,-2.5312020030898514,0.004928416631080028,0.00003016039428223666,0.00002722490526102615,0.00003243625978102591,-0.00004055442461748358
0.14715719063545152,-2.5105981730712306,0.0055796091812825195,0.000035024459673534854,0.00003371679222862015,0.000023700962684422064,-0.0000408331035842702
0.15384615384615385,-2.490100098790897,0.006280627673599386,0.00004149473222955146,0.00004056430720694695,0.000010601947820214066,-0.00004197391172956433
0.1605351170568562,-2.469812154756254,0.007037655995081356,0.000049428971613483715,0.00004794076015115732,-0.00000920265448364285,-0.000043925075673450366
0.16722408026755853,-2.4496536904767434,0.007842158494493198,0.00005893660258263347,0.00005605772521604024,-0.00003899970179854972,-0.00004688955543183723
0.17391304347826086,-2.429673713565818,0.008697567077879957,0.00007011501828897877,0.00006499404262569419,-0.00008323800386200997,-0.00005132440014441712
0.1806020066889632,-2.4098349584738443,0.009593198293246369,0.00008318396929903357,0.0000749125087969735,-0.00014830190360030964,-0.000058061899337226725
0.18729096989966554,-2.3901814486625184,0.010521044228656549,0.00009834291504644553,0.00008594254046638154,-0.00024296158834178296,-0.00006845305004241616
0.1939799331103679,-2.370687137193889,0.011472828921838762,0.00011585508290799566,0.00009822286573617828,-0.0003798919861935589,-0.00008470462834072272
0.20066889632107024,-2.3513753376309925,0.012389938110160162,0.00013596638385489221,0.00011191851698694611,-0.0005766726066134047,-0.0001102370783574906
0.20735785953177258,-2.3321973706024246,0.01325359177463059,0.00015898017430470134,0.0001272471531894558,-0.0008589713962232292,-0.00015046209746988494
0.2140468227424749,-2.313239399349372,0.013938861348022049,0.00018501310011286384,0.00014434024493767823,-0.001261023412577664,-0.00021339277928818196
0.22073578595317725,-2.2944305614952727,0.014285459806521855,0.00021427883665627034,0.00016347456330398819,-0.0018338406995223387,-0.00031159205739183626
0.22742474916387959,-2.2758273194270267,0.013884756717040894,0.0002466812754856226,0.00018483460605609736,-0.0026457792127437146,-0.0004633751091834336
0.23411371237458195,-2.2574558855738913,0.011934454407732727,0.0002818741111305606,0.00020859097286503057,-0.0037912736956014904,-0.000695616476174689
0.2408026755852843,-2.239338216195398,0.0062974512938076205,0.0003191601082060183,0.00023491021639976417,-0.005398251927776366,-0.0010468434089144234
0.24749163879598662,-2.2216661394588146,-0.011977100935503217,0.0003569599727232599,0.0002636152284683355,-0.007609156616929683,-0.00156432291911156
0.25418060200668896,-2.204445157843665,-0.05510398375705415,0.0003935337212618193,0.0002946574828887029,-0.010605143743159243,-0.002309670782340302
0.2608695652173913,-2.1870623455341525,-0.12639892492779864,0.00042773605938331403,0.0003292476441942537,-0.014794543362071666,-0.0034117277927687047
0.26755852842809363,-2.167400222394969,-0.1620551445445874,0.00045689169790720936,0.0003726123889957676,-0.021735148005251014,-0.0053550840022120695
0.27424749163879597,-2.1472668831780783,-0.1650305476249033,0.0004659187279063358,0.00042096984909527726,-0.03229578784647997,-0.008498243654645693
0.2809364548494983,-2.1298869560353735,-0.0966716340951571,0.00044566507714739593,0.00046481349204171364,-0.045294384524044266,-0.012568304289931474
0.28762541806020064,-2.112762375640349,-0.04844676135197817,0.00037995855141312036,0.0005075681508883398,-0.06369027888919643,-0.018629673832631803
0.29431438127090304,-2.095931678163272,-0.004946420472663575,0.00025672902534650585,0.0005452319711245979,-0.08844575684240852,-0.02715032823004334
0.3010033444816054,-2.07971563160465,0.05111144468517287,0.00006662784406360244,0.0005720476138970133,-0.12015419515821758,-0.0384989762240372
0.3076923076923077,-2.063723379755758,0.12233588141615555,-0.00020209105127113667,0.0005827460358059423,-0.16025236660895956,-0.053347170011839556
0.31438127090301005,-2.0471874087157493,0.2025419540006908,-0.00035441732263623857,0.0004254011014170712,-0.2148663540947885,-0.07385748973853393
0.3210702341137124,-2.0289181213605767,0.2590082421915594,0.0015750694977454305,-0.0012140166223959556,-0.3136801348594194,-0.10854875463304683
0.3277591973244147,-2.0097426599330195,0.3065025702008007,0.00016185607646169065,-0.001030247616200623,-0.4402103955705845,-0.15862670431328157
0.33444816053511706,-1.9930982911098742,0.27646129406409004,-0.0008974347089668633,-0.001015704851487784,-0.5798715708841787,-0.21563075476144106
0.3411371237458194,-1.9769611448935376,0.2531365457923757,-0.0018833237238604212,-0.0009895143596465408,-0.7363923530389841,-0.28145955355929514
0.34782608695652173,-1.9610664009427237,0.23881016370323882,-0.0027638645458494698,-0.0009203287659726784,-0.9044978744943736,-0.35424577766439436
0.35451505016722407,-1.9453341328062996,0.23146897936826327,-0.003478414577224816,-0.000806516921232558,-1.0777158595863954,-0.4314708471543723
0.3612040133779264,-1.9297718003254956,0.2290718773788821,-0.003929546565575609,-0.0006662125254571917,-1.2475419242150714,-0.5097887832648875
0.36789297658862874,-1.9144476754418034,0.23069495222872652,-0.00394240187138887,-0.0005859796105445688,-1.4012478111762257,-0.5838953173911916
0.3745819397993311,-1.8993216395739756,0.23429469589257368,-0.005643533020577294,0.0005270679547049593,-1.5392639121572584,-0.646839045001956
0.38127090301003347,-1.884372861631672,0.23956659513856768,-0.006779817928333309,0.0014007985725827633,-1.6764675673832918,-0.7064189165366848
0.3879598662207358,-1.8695883446295347,0.24638274111098235,-0.0044802433983279965,0.0004261794520690665,-1.8305164860892424,-0.7722765854975827
0.39464882943143814,-1.8550790433466204,0.25460771143315325,-0.0022410981102816865,-0.00005565787896843436,-2.2277357272569978,-0.83598312937028
0.4013377926421405,-1.8407824069031165,0.2604660141523396,0.0021192915325713322,-0.001759111670125991,2.1372453674165324,-3.712341194228043
0.4080267558528428,-1.8267466133798587,0.2642644912347311,0.006163648560516177,-0.004224714348497381,7.732711800439297,-6.945049193960758
0.41471571906354515,-1.8132901138318689,0.2666339080539271,0.0007518369767820316,-0.0059441638800128895,1.895830260952466,-1.5754459506242116
0.4214046822742475,-1.7998925972073234,0.28984941708144485,-0.0009062255850614734,-0.007588644701189711,0.06775234217627371,0.1760986635148624
0.4280936454849498,-1.7865629322872023,0.3244733566216237,-0.0007445535482461519,-0.008961539149921318,0.11509757550234495,0.21062133810179745
0.43478260869565216,-1.7734102315337887,0.3660825241093881,-0.00036169580719786604,-0.00929043344709,0.09834610474431721,0.1951671994106388
0.4414715719063545,-1.7604927285727119,0.41222849357307456,-0.000003067392020980554,-0.00905889057583545,0.041760291370522014,0.15190817432345693
0.44816053511705684,-1.7477377928193447,0.4614386575859177,0.00028245479637534486,-0.008696166831515082,-0.04925010758675317,0.08383994483677254
0.45484949832775917,-1.7353656412940295,0.5174090371821721,0.000037916801164271136,-0.009651560043070995,-0.26508260919289667,-0.07814938909339572
0.46153846153846156,-1.7233172740321574,0.5789049602405174,0.00031070601793855163,-0.009429266132967443,-0.4570231201899636,-0.2093195753865733
0.4682274247491639,-1.7116094124289325,0.6462117858916379,0.001127539102626208,-0.007968465061408931,-0.6238377714178719,-0.3080790013374209
0.47491638795986624,-1.7007896385178216,0.7261763669066058,0.0016540752303940654,-0.0064862659103980804,-0.7181284854927779,-0.3746621679409034
0.4816053511705686,-1.690220169781946,0.8097085029080529,0.0020987919260075528,-0.004998035767093816,-0.7919785190368945,-0.4321765406562692
0.4882943143812709,-1.681040233379708,0.9214274114367952,0.0019789520808808736,-0.004018757913143272,-0.8340745648273417,-0.47180156283200236
0.49498327759197325,-1.6720338826667762,1.0366675193072297,0.0017885856751954385,-0.0031030603241730317,-0.8722037811176734,-0.5091917789730094
0.5016722408026756,-1.6644278308580778,1.1810332961208323,0.0012085357310684646,-0.0027198734952901017,-0.8375230467433762,-0.4972990265543332
0.5083612040133779,-1.6575128930747864,1.339773974068145,0.0004361584502042084,-0.002599506021520637,-0.7669071431409802,-0.46108278814110276
0.5150501672240803,-1.6505979552914953,1.4985146520154573,-0.00033621883066004736,-0.002479138547751172,-0.6962912395385843,-0.42486654972787236
0.5217391304347826,-1.640862383040283,1.564424015906131,-0.006876965424472822,-0.001388365064209319,2.896058017386384,-2.3889921477559533
0.5284280936454849,-1.6303260918222087,1.603980516733809,-0.015055231083330473,-0.00002211366730477983,7.488153510240613,-4.920972838977642
0.5351170568561873,-1.6188370348733034,1.6398963728432963,-0.015303996116534997,0.000835764621399219,4.37633618080249,-2.352643258621311
0.5418060200668896,-1.6071601394186033,1.6734126524357218,-0.015018292592946392,0.0019012678109644658,0.870101133001464,0.3607093330120724
0.5484949832775919,-1.5951703820309129,1.696974962527122,-0.017486683346373894,0.004403043230310403,0.6897721551913489,0.2675664143350797
0.5551839464882943,-1.583088123654057,1.715172073125593,-0.020218817141795145,0.00718999234997103,0.5747725482866612,0.19663046652114305
0.5618729096989966,-1.5709110945548923,1.7278723362215502,-0.02322116554593681,0.01026911258916289,0.5267053247491883,0.14844639074623675
0.568561872909699,-1.558786269125954,1.7293886980011182,-0.0263204791056372,0.013775671697674659,0.5244820557250017,0.1272291768929936
0.5752508361204013,-1.5467018855681371,1.726268991284518,-0.029350159927107725,0.01742106213815222,0.5373385261959034,0.11571262851793168
0.5819397993311036,-1.5347410876517058,1.712524238460408,-0.03203975762760668,0.0213215943288457,0.5783061902528124,0.12399938166797841
0.5886287625418061,-1.523023378825436,1.689327686885678,-0.03419020385347045,0.02509608816316021,0.6319966301591433,0.14276835762889406
0.5953177257525084,-1.5115199993615431,1.657797573330908,-0.03586528529967169,0.028759455165168996,0.6969046217608431,0.17077941076345174
0.6020066889632107,-1.500597078105167,1.6043994719835875,-0.03645437866954846,0.031740727092500545,0.7686636235732787,0.20712100275171264
0.6086956521739131,-1.489824939891436,1.5453208208685292,-0.03676136975487793,0.034544814220993265,0.8422022817871422,0.2456265817057361
0.6153846153846154,-1.4807547619934225,1.4354339560733964,-0.03598407673166319,0.03606533963001426,0.9043519464412488,0.2810160484797992
0.6220735785953178,-1.4717966849099862,1.3222005725092036,-0.03513536657217429,0.03750132234260221,0.9657514670153367,0.31620027033101583
0.6287625418060201,-1.4635902835569439,1.183553402418418,-0.03386456229291611,0.038234629958283764,1.016974138104609,0.3463479579422731
0.6354515050167224,-1.4556956343181138,1.0343660467669704,-0.03241869750696102,0.03867650812080219,1.0639760339119042,0.37440677912600095
0.6421404682274248,-1.44689892708026,0.909227822326336,-0.031067588896993393,0.03921601247143207,1.1129739914690755,0.4033503867232076
0.6488294314381271,-1.4338470157654584,0.8975345884362653,-0.030163465809923636,0.04021604081732426,1.1713878071031152,0.43646772456607213
0.6555183946488294,-1.4200078460540024,0.9108801547659054,-0.017126274538764932,0.03394301646165764,1.2124705007723402,0.4694356716867632
0.6622073578595318,-1.4055206039995314,0.9483352280437913,-0.0006085681980334283,0.025230565491954824,1.2354274330257395,0.49398305489952166
0.6688963210702341,-1.390374324814164,1.0176338680236987,0.005817620385931822,0.021468788132254016,1.2318691334106138,0.49258674293145543
0.6755852842809364,-1.374496022252482,1.1517980936796723,0.013748351400929988,0.01765241847177194,1.1947554042143393,0.47493800255558405
0.6822742474916388,-1.3581428414767234,1.379800332586544,0.022254270455051323,0.014257658239476579,1.1247075902088624,0.4422693209464929
0.6889632107023411,-1.3405163223808367,1.4514133675067635,0.031059876432594048,0.011455976812333225,1.0148102704967479,0.3923669519858102
0.6956521739130435,-1.3215147238986067,1.1903054392648036,0.03908274576891678,0.00950184787589541,0.8656031178067537,0.3267283569222653
0.7023411371237458,-1.3026544488578948,0.7206331232390232,0.04490738558339911,0.008221599674751626,0.7041425609649007,0.2577429291384655
0.7090301003344481,-1.2845986790222028,0.13926431945983062,0.050450159141313476,0.0060134621490703834,0.5549291247971497,0.19382484242639542
0.7157190635451505,-1.26695814029046,-0.41860958729042824,0.055576351258698344,0.0029207371214242115,0.4255214357486642,0.13798961572880458
0.7224080267558528,-1.2481248740517736,-0.7145997738607056,0.03345991014613322,0.013389333526011581,0.3027748092791456,0.10612091568340136
0.7290969899665551,-1.2286708992070166,-1.0205316229954469,0.03074150300019831,0.010759638984590699,0.21918409010428355,0.07386000389948535
0.7357859531772575,-1.208690578378356,-1.434755966650578,0.027160879236234097,0.00865994388258812,0.15241346839914177,0.04936571168400389
0.7424749163879598,-1.1857557876114617,-1.35542146939046,0.022846896808481867,0.006874299147101478,0.09824874777815779,0.030646663045288427
0.7491638795986622,-1.1631465755458388,-0.98320599523372,0.018876868592577027,0.0055761386620591415,0.06216933160606701,0.018963707523283316
0.7558528428093646,-1.1422147761945047,-0.4887400391661879,0.015655446975107196,0.0046756756918527615,0.039910717925212044,0.012240756292258386
0.7625418060200669,-1.1217454452629794,-0.10173637725895987,0.01298642909797854,0.0040046225833814285,0.02548425710877855,0.008203620621705578
0.7692307692307693,-1.1000169029080786,0.0037002055756716057,0.01065906993875924,0.0034602373641962727,0.0155649036590105,0.005667628163429367
0.7759197324414716,-1.0776628132077442,0.047976499837882526,0.008740309357518274,0.0030313071338948913,0.009104059319811952,0.004192060211774053
0.782608695652174,-1.054746622708814,0.06872168678713723,0.007190981698395994,0.0026924180286588143,0.004975709883487452,0.0033803957071309176
0.7892976588628763,-1.031363977902701,0.07934899796950459,0.005962624367512452,0.0024237956363465543,0.0023841267172695245,0.0029727359094674213
0.7959866220735786,-1.0074693109726227,0.08476306520673062,0.005014719257331445,0.002211349708180856,0.0008159628767348446,0.002813852673224092
0.802675585284281,-0.9830695500535638,0.08682451745635951,0.004293734098308005,0.0020400628692031665,-0.00012867020254607548,0.002796873568471912
0.8093645484949833,-0.9582299088882841,0.08771602347577892,0.0037422319465793778,0.0018958950449348973,-0.0007239998196151131,0.002858296233518195
0.8160535117056856,-0.9329141847529899,0.08760621115604103,0.003327127238309588,0.0017697965554008984,-0.0011070928397193867,0.002972313515392191
0.822742474916388,-0.9071531822891389,0.0869157029230024,0.0030299037038151533,0.0016539475930575692,-0.001360026449801471,0.0031286808819095324
0.8294314381270903,-0.8808778941200153,0.08607936983205268,0.0028304370039927743,0.0015390020048856902,-0.0015442753794259986,0.0033255504548606856
0.8361204013377926,-0.8541278428178256,0.08520878996015949,0.0027029335248984297,0.0014163040715685085,-0.0017030277895311665,0.0035610294141752733
0.842809364548495,-0.8268794477499517,0.08434383246226737,0.002642638985961663,0.001276280240173169,-0.0018576141267992023,0.003845398811267851
0.8494983277591973,-0.7991328037091123,0.08379168496922039,0.002647137524453393,0.0011051594737796861,-0.0020254490284601144,0.004193616099388789
0.8561872909698997,-0.7709094460146985,0.0835148573190393,0.002709796575960115,0.0008938261666862958,-0.0022166153050309665,0.004614996764823427
0.862876254180602,-0.7421296572765507,0.08339693028533801,0.002857382895716272,0.0006105154303486312,-0.0024492841178293985,0.0051572747094087755
0.8695652173913043,-0.7128539901048694,0.08361128484940049,0.0031088880207000955,0.00023614150593646052,-0.0027320330557845736,0.005851535841181792
0.8762541806020067,-0.6830249934056427,0.08426087992048185,0.0035680558785691173,-0.0003018423120352084,-0.0030967081939947383,0.006825450452543905
0.882943143812709,-0.6526656043542003,0.08531844305697614,0.004430591183633854,-0.0011208748897106578,-0.0035840434024010984,0.00828227660387525
