# n,energy,berry,bcd_x,bcd_y,qmd_x,qmd_y
0.00000016666666666666665,-3.017216595472437,-0.0000000009935742687310505,0,0,0,0
0.006688963210702341,-2.9764464588073407,-0.000026048133273345378,-0.00000000000000000023685586638955653,-0.000000000000000000335106254117779,-0.00000000000000000018569650540558009,-0.00000000000000000018484654189237279
0.013377926421404682,-2.9525158613232416,-0.000021561385374857486,0.000000000000000000010857251110478102,-0.0000000000000000003644607160134452,0.0000000000000000002311380440046113,-0.000000000000000000052454386337083055
0.020066889632107024,-2.9287784968925665,-0.00001221556488385181,-0.0000000000000000001499440171861313,-0.0000000000000000004806685496563718,0.0000000000000000002145165908736957,-0.00000000000000000024156726580399915
0.026755852842809364,-2.9052497916461886,0.0000024546245015715812,-0.0000000000000000003975654531173138,-0.00000000000000000065671505642748145,0.00000000000000000027040678290293884,-0.00000000000000000017165351645370667
0.033444816053511704,-2.8818966022151002,0.00002295863396198998,-0.0000000000000000004229249879157431,-0.0000000000000000006936712483391183,0.0000000000000000011338035737814362,-0.00000000000000000136132611316744
0.04013377926421405,-2.8587411658272583,0.00004998121630232288,-0.0000000000000000001437449187483164,0.000000000000000000027768830672304795,-0.0000000000000000010180787443710768,-0.0000000000000000013812029403850202
0.046822742474916385,-2.8358112517142096,0.00008469120220287548,0.0000000000000000019375017712541074,-0.000000000000000000964184468770811,-0.0000000000000000004787247966448348,0.0000000000000000006315391948501137
0.05351170568561873,-2.8130660222524306,0.0001268526720381706,0.00000000000000000028014593863372463,-0.000000000000000001470222440691966,0.0000000000000000007278414853131103,-0.0000000000000000010258953947718447
0.06020066889632107,-2.7905270262704116,0.000177438045172849,-0.0000000000000000003082833583002009,-0.0000000000000000012733468334594792,-0.0000000000000000010359763959329461,-0.000000000000000002309116374443894
0.06688963210702341,-2.768162863420756,0.00023703256867056187,-0.00000000000000000028963544053912204,-0.000000000000000000562563862796028,-0.0000000000000000012285245980926802,-0.00000000000000000029092030868975265
0.07357859531772576,-2.74598610371328,0.0003064853365876428,-0.00000000000000000014460304207641744,-0.0000000000000000064504261598763554,0.000000000000000000238590765086516,-0.000000000000000001737956676694695
0.0802675585284281,-2.7240293340216755,0.0003865962626065913,0.0000000000000000009386131869712386,-0.0000000000000000020404335972623366,-0.000000000000000005963935281523714,-0.0000000000000000029650792593148906
0.08695652173913043,-2.7022323042010643,0.0004782325518447028,-0.0000015770545817269366,0.0000009500234099763012,0.0000004061614762208762,-0.0000012715753046217783
0.09364548494983277,-2.680643269825105,0.0005847469070341205,-0.00006092447982491994,0.00003699193078367548,0.000016530562155540765,-0.000048614873220148736
0.10033444816053512,-2.65921574539375,0.0007046040952412664,-0.000027541545614346387,0.000019993468522953317,0.000023285577339205745,-0.00003467680521776219
0.10702341137123746,-2.638022866755302,0.0008391902534236351,0.00001809245858647351,-0.000002700590876706382,0.00004219802388592025,-0.000053303735475357524
0.11371237458193979,-2.6169986446295614,0.0009902694442671615,0.000010604833992299547,0.0000055819453080175085,0.000033085521216070086,-0.00004285926675113644
0.12040133779264214,-2.596153284481775,0.0011607574869872954,0.000010122785399839338,0.000010367227873565394,0.000029819799635709824,-0.000038291738594648065
0.12709030100334448,-2.5754959653876175,0.0013511553984025377,0.000011492218449563454,0.000014689991545875538,0.00002832911525530322,-0.00003570693190245547
0.13377926421404682,-2.5550340997949337,0.0015615713645477994,0.000013801478249620482,0.00001910696561867909,0.000027631458978059616,-0.000034160042304156494
0.14046822742474915,-2.534751418513683,0.0017965659257404819,0.00001680855514885747,0.00002383989358519744,0.000027272719792562094,-0.000033249336485150655
0.14715719063545152,-2.5146443104134657,0.0020553727765409277,0.00002042643351753805,0.00002898986339367524,0.00002691824754177553,-0.0000327308105359011
0.15384615384615385,-2.49473035528324,0.0023403411436129424,0.000024670201522798207,0.000034623066622207016,0.000026199841743577686,-0.000032416039407611386
0.1605351170568562,-2.475000512064188,0.002660881054958236,0.000029597577410595325,0.000040800099090988,0.000024605129803492298,-0.00003210943523254026
0.16722408026755853,-2.4554458820111784,0.003010194094224259,0.000035315851478784483,0.00004760962597281612,0.000021391386549932033,-0.00003158789687641026
0.17391304347826086,-2.436080031443021,0.003390520125986699,0.000041949509390290556,0.00005512455807917959,0.000015451777771283042,-0.00003058594381480551
0.1806020066889632,-2.4169084235327674,0.0038114394891199015,0.000049677231290496316,0.00006344119244644363,0.000005105506571936274,-0.00002880025696178074
0.18729096989966554,-2.3979227429528223,0.0042663443916895645,0.00005872386952600284,0.00007267712362353502,-0.000012194464378768661,-0.000025882846508909824
0.1939799331103679,-2.379114960857364,0.004757478204326235,0.00006937335834429727,0.00008298594468909809,-0.00004030591514676383,-0.000021465414095825035
0.20066889632107024,-2.3605047900551255,0.005293406198646769,0.00008196137690416326,0.00009452701768394148,-0.0000850218208890307,-0.000015241996335535229
0.20735785953177258,-2.3420813351785745,0.005863337981503823,0.00009692318711750734,0.00010750173285017235,-0.00015515554684260118,-0.000007085195011242238
0.2140468227424749,-2.323820206836504,0.006457961431684267,0.00011482260860244015,0.00012218951772581085,-0.00026414405698179055,0.000002727614846919094
0.22073578595317725,-2.3057776528836254,0.00707110699262939,0.00013622582270815054,0.00013881662021362814,-0.000431424267793645,0.000013055749894311316
0.22742474916387959,-2.2879220118440733,0.007648154716695324,0.0001619271924308778,0.0001577511561017264,-0.0006864794336004942,0.0000213504244889995
0.23411371237458195,-2.270263390085712,0.008153190783685557,0.00019279627030258488,0.00017936281690890456,-0.0010716502069276677,0.000022679339800165996
0.2408026755852843,-2.252824679515488,0.008351993635576859,0.00023106080370042942,0.0002046818483347021,-0.001697688370120039,0.000002209063178139036
0.24749163879598662,-2.235603176492409,0.0077434717345800435,0.00027735636830381126,0.00023389284266172588,-0.0026723426987678247,-0.00006230211197406008
0.25418060200668896,-2.218627630978389,0.004627801593116226,0.00033305769922912815,0.0002675908622110299,-0.004183849971102266,-0.00021179805615911988
0.2608695652173913,-2.201981345343788,-0.011008362004019473,0.00039915572478487236,0.00030620635229211166,-0.006501682916840144,-0.000513141988051952
0.26755852842809363,-2.185534695868937,-0.06264136400928477,0.0004772111654688552,0.0003506384152792688,-0.010044258080252593,-0.0010760026087572646
0.27424749163879597,-2.168974584354697,-0.13801754171744937,0.000570092523115124,0.00040268093478571545,-0.015534986436508321,-0.0020947601243930867
0.2809364548494983,-2.1518608816150184,-0.10776628003429431,0.0006825301033503851,0.00046553132387885113,-0.024418639491335006,-0.0039715595256242745
0.28762541806020064,-2.1361590653680245,0.03076111702292665,0.000801627027423903,0.000534224358211164,-0.03846030842097492,-0.00736542428386252
0.29431438127090304,-2.119370798335322,0.10841980784090009,0.0009351657601124322,0.0006179854799814536,-0.0626845794327821,-0.013859534675890102
0.3010033444816054,-2.1032265216813673,0.1085354744137819,0.001054400744099631,0.0007078331131983186,-0.1003425349229522,-0.02488141459597873
0.3076923076923077,-2.0877397875832773,0.08218834920791793,0.0017484798995182258,0.0004069286564930644,-0.15956545973870098,-0.04294266423216544
0.31438127090301005,-2.0724450433389214,0.07205955005713385,0.0032616534292368984,-0.0004682572242821348,-0.2504611853149107,-0.07152796277475275
0.3210702341137124,-2.057425719790349,0.06945169561901296,0.002767249887551958,-0.0002834246977631643,-0.39847481719394906,-0.12299320001319938
0.3277591973244147,-2.042652808976144,0.06961512952852522,0.002299534711239582,-0.0002920258227844164,-0.6278295121809099,-0.2069241540653547
0.33444816053511706,-2.028096332825494,0.07155384001498938,0.0009789867028580767,-0.00003910983478546049,-0.9403829802923753,-0.32332101545385095
0.3411371237458194,-2.0137508325164934,0.07489477698188815,-0.0013354100483369523,0.0005398765661520834,-1.3386582716475879,-0.47338957088861655
0.34782608695652173,-1.99973461180926,0.08025627644922183,-0.0022958733771417735,0.0000962934796637999,-1.8596264007869996,-0.677664146344089
0.35451505016722407,-1.9860095240257394,0.08696138045200194,-0.00338792126710018,-0.00030729321309826444,-2.3879635368235395,-0.8837586422851105
0.3612040133779264,-1.9725218600632501,0.09486277965451911,-0.004398824432457455,-0.0007275436120839238,-2.8741105611905082,-1.068394666382057
0.36789297658862874,-1.9593621004451731,0.10463019608219566,-0.004896957767637752,-0.0012755930044401989,-3.199504395219144,-1.1746126489951079
0.3745819397993311,-1.9465663576950079,0.11660089832614898,-0.004555991274272817,-0.0020850706435657255,-3.25754085385592,-1.1473922241155667
0.38127090301003347,-1.9340146952271222,0.13020491354318903,-0.0037390799787052676,-0.0030384024498110607,-3.1596740099631644,-1.0426342092001124
0.3879598662207358,-1.921971170600924,0.14761690200955072,-0.002157907052359974,-0.004209043334305959,-2.798311158720206,-0.8076513555162481
0.39464882943143814,-1.910342894960587,0.1689551154794003,-0.0004070298982835714,-0.005301658763059763,-2.362234914301397,-0.5442703146853144
0.4013377926421405,-1.8990634235631516,0.1935913115727666,0.0014863968024177257,-0.006328733730684236,-1.8634003021835825,-0.2570351321107951
0.4080267558528428,-1.8887664000642874,0.23059929569936938,0.003072850210213373,-0.006906140651538056,-1.4182533892321243,-0.02348980307302384
0.41471571906354515,-1.878713708089044,0.2706841023470153,0.004582960381410276,-0.007371716625274082,-0.9864584284361888,0.19670303802447672
0.4214046822742475,-1.8716500391864035,0.3699068576061755,0.005357669219101625,-0.0074069749822751295,-0.7268886308753993,0.3110790252159047
0.4280936454849498,-1.8651324583434845,0.47993398835148393,0.005998021821469296,-0.007363615240091656,-0.4987839986685768,0.4061225017402058
0.43478260869565216,-1.8586148775005655,0.5899611190967924,0.006638374423836967,-0.007320255497908183,-0.2706793664617543,0.5011659782645069
0.4414715719063545,-1.8503631604266304,0.6615783994293989,0.007072263788482066,-0.006880204786264017,-0.026168727357306493,0.5844553850160213
0.44816053511705684,-1.8417554051256904,0.7253096931850189,0.0074637638622596595,-0.006358708830059765,0.22171025473172715,0.6653315452836986
0.45484949832775917,-1.832615220882916,0.7730509932052247,0.007703617558049124,-0.005388066200536323,0.5007130962879657,0.7571201874036029
0.46153846153846156,-1.8230325410721069,0.8075031933946688,0.007817439693763964,-0.004044142938189731,0.8055826193715576,0.8579780676442486
0.4682274247491639,-1.8133393267461961,0.8300344895170062,0.008175249150130362,-0.0016765418231207518,1.2079150173089421,1.0195744731231047
0.47491638795986624,-1.8035333035999994,0.8403996027659218,0.008782066093272351,0.0017357998493408291,1.7097156394821513,1.2431591306129004
0.4816053511705686,-1.793965457587538,0.834331295825889,0.008675024577226482,0.0054824832765719405,2.5452651297465887,1.6750996381798275
0.4882943143812709,-1.7846451013722116,0.8111870262818536,0.007826212923650717,0.009576581133407947,3.7276129812241514,2.32354265486138
0.49498327759197325,-1.7763347947578623,0.7505654222875272,0.006960585111732608,0.012469708196828274,4.6005777792536495,2.799335735914086
0.5016722408026756,-1.7696622499917325,0.6291755664407671,0.006067690458126664,0.013415501045791565,4.971888241760869,2.9951826862056508
0.5083612040133779,-1.7629897052256027,0.5077857105940071,0.00517479580452072,0.014361293894754856,5.343198704268089,3.1910296364972153
0.5150501672240803,-1.7552305631352616,0.4098831589986097,0.002033716935023441,0.014915889894552954,5.457194372349485,4.1272648838166015
0.5217391304347826,-1.7460637808481385,0.342407401986266,-0.004019788094143508,0.014963707166417786,5.237849768197594,6.022641392485957
0.5284280936454849,-1.7364527816823396,0.29071254211430214,-0.008149387585380911,0.010738532402224454,3.0262555652327583,5.256244316173779
0.5351170568561873,-1.7257613910382439,0.27739881454232607,-0.007599806144945673,-0.003879097948863007,-4.030740945752989,-1.9839218500071194
0.5418060200668896,-1.7145586787876057,0.2523319285292441,-0.010735784457458163,-0.011063845917089341,-7.388610230252273,-5.468966459717452
0.5484949832775919,-1.7027382024463125,0.21306521379037416,-0.01832455029195958,-0.00926839870591472,-6.277300160604742,-4.417180972770022
0.5551839464882943,-1.6901986162307965,0.17496126314244692,-0.026137219958728045,-0.006426513665834766,-5.300537079965462,-3.8825666150856524
0.5618729096989966,-1.6773131440703728,0.14283680149692685,-0.03238476543110128,-0.0017176256472537315,-4.141692467133042,-3.321766638108693
0.568561872909699,-1.663953477521147,0.12809325671554206,-0.033652384644765984,0.007861275637601108,-2.3150802930584127,-2.2592434028743504
0.5752508361204013,-1.650114625469617,0.11414171548622541,-0.03332407348607076,0.015776614887833353,-1.0130099470408416,-1.5288229843073537
0.5819397993311036,-1.6359251950598412,0.10104686132919603,-0.031142540857758298,0.0217019928675982,0.09497431333044098,-0.9068268032416105
0.5886287625418061,-1.6213639370295905,0.08904574283380207,-0.026498601932995868,0.024983956388294953,1.128114196129827,-0.3065736788769257
0.5953177257525084,-1.6062548634437246,0.07817395261528595,-0.0173064584426436,0.024808069315304833,1.9567629275732386,0.21233371014324998
0.6020066889632107,-1.5907704618957774,0.06826006803775762,-0.006089441635292887,0.022918714421281572,2.5228971770079185,0.6013117804779476
0.6086956521739131,-1.5749308542901892,0.05911773106819669,0.0058463546422931984,0.020022476897698354,2.787895784849311,0.8355108613955209
0.6153846153846154,-1.558729914518792,0.05069385008056812,0.016915549855539214,0.01688423005439262,2.742919135500271,0.9065554874356061
0.6220735785953178,-1.5421286908170735,0.043210743140206065,0.02527187464592538,0.014268307727874272,2.439725650239766,0.8395969511211242
0.6287625418060201,-1.5251373289219834,0.0378866449211091,0.02932465571933538,0.012621525454351584,1.9814474764960477,0.6848826557447695
0.6354515050167224,-1.5077529053656127,0.032577603421042,0.02953546079016759,0.01178334497681675,1.5155379418144919,0.5161488936601044
0.6421404682274248,-1.4900102555131458,0.028935549623929118,0.0268130174583837,0.011567989587614335,1.1037731454623192,0.3638581748840698
0.6488294314381271,-1.4718843471775402,0.02729598188648694,0.02145920511585874,0.012162723588392557,0.7739083116129848,0.2410077409964233
0.6555183946488294,-1.4533979790972045,0.02653330538134513,0.009636942631369222,0.016118906198440086,0.5316709422568734,0.1466515838910702
0.6622073578595318,-1.4345760825917417,0.02855346633808178,0.015601421555493527,0.009691121490263547,0.35368667823870725,0.09051428539560077
0.6688963210702341,-1.415373569293439,0.034420674773220826,0.028186980955449057,-0.00039113583878538374,0.22816214294242002,0.05644441419522364
0.6755852842809364,-1.3957935436101236,0.04415919559114975,0.03746753774237734,-0.008220338003465427,0.15130236410891731,0.020802254774221894
0.6822742474916388,-1.3758760759974036,0.06389272103521593,0.027618770023492643,-0.004712990266599671,0.09693708915198693,0.009839480611144345
0.6889632107023411,-1.3555919144838084,0.10029603548342603,0.007676645467155098,0.00491588334529287,0.059281777443794925,0.013660129789689146
0.6956521739130435,-1.3349647362840191,0.17239810383661625,0.00628219608606216,0.0041980752241645115,0.0391597251345613,0.008359335534313984
0.7023411371237458,-1.3139561943392302,0.3494699935734956,0.005170246361229115,0.0036404896632425132,0.025734689931136773,0.005141240293786305
0.7090301003344481,-1.291888572016653,0.3533076484746164,0.004265751966656131,0.0031956932880633534,0.016558241623851586,0.003186520699208523
0.7157190635451505,-1.2697847423473925,-0.6571764828323106,0.0035702934448259903,0.0028603520630651968,0.010614734687161913,0.0021001718024622486
0.7224080267558528,-1.247070742585366,-1.0848586999587282,0.0030281220486803326,0.002605139707286725,0.0067024269284387036,0.0015218081898310028
0.7290969899665551,-1.2246893533226706,-0.42345228110911814,0.0026277412493814294,0.0024230178935617324,0.004249250805032726,0.0012593131763263177
0.7357859531772575,-1.2025303617209249,-0.15148649469468253,0.002323794513730145,0.0022911353344637277,0.002624488252779421,0.001154463528201034
0.7424749163879598,-1.179645441345656,-0.11399195565316259,0.0020851997023605944,0.0021948001417909507,0.0015000021992483646,0.0011391612035351099
0.7491638795986622,-1.1563327615095351,-0.10442635452015668,0.0019028052014481386,0.0021291823333142433,0.0007303508640065775,0.0011773190253605466
0.7558528428093646,-1.1326241489269493,-0.10213862347722391,0.0017658753633132056,0.002088763434724748,0.00020112575136218918,0.001246247733360392
0.7625418060200669,-1.108496308827724,-0.10271096229021975,0.0016677505905531467,0.0020701666774875062,-0.00015892816396708087,0.0013335905937731014
0.7692307692307693,-1.0840065454366012,-0.10464455854486053,0.0016009937801864367,0.002069015140772313,-0.00040801515838548915,0.0014316652725519876
0.7759197324414716,-1.0591812988598863,-0.1069105536336518,0.0015571293870204168,0.002080470904750112,-0.0005920137423691649,0.0015366790555421663
0.782608695652174,-1.0340259004603203,-0.10944247101163389,0.0015316384855905542,0.0021016395729663746,-0.0007338304881360006,0.0016479934913512543
0.7892976588628763,-1.0084692360842893,-0.11222785778630442,0.001522453414289628,0.0021305470128972067,-0.000847570506760115,0.001767491790456072
0.7959866220735786,-0.9825224773984795,-0.11495564845154888,0.0015250646491850196,0.0021637235459052687,-0.0009473214972627353,0.0018964117296551416
0.802675585284281,-0.9562585698465519,-0.11748637760977214,0.001536093550135026,0.002198468342864579,-0.0010415598445452847,0.002035976806477543
0.8093645484949833,-0.9296308529110385,-0.12008974507602031,0.001553905010130001,0.002232058857686806,-0.0011361234638840936,0.002190290342748191
0.8160535117056856,-0.9026216621934448,-0.12254860199534752,0.0015759124199619355,0.0022613773894943237,-0.0012359259041582601,0.0023622903182422125
0.822742474916388,-0.8752561018286411,-0.12493406263343028,0.0015995335815450471,0.0022834127912113814,-0.0013439527970917188,0.002553564575434806
0.8294314381270903,-0.8475463941630503,-0.12722688744976518,0.00162285423322029,0.0022930926331278206,-0.0014658278949443988,0.0027723062533378403
0.8361204013377926,-0.8194804307856367,-0.12938476598348217,0.0016437895928068504,0.0022880880059263707,-0.0016028298542864793,0.0030193289634042947
0.842809364548495,-0.7909698052161461,-0.13135522244008746,0.0016600673899173945,0.00226131421774102,-0.0017608247118558928,0.0033051272277383396
0.8494983277591973,-0.7621539766197345,-0.13320038537621862,0.0016692573340570842,0.002207846863265085,-0.001943544542818059,0.0036351438113505067
0.8561872909698997,-0.7329767330459087,-0.13487115408136852,0.0016692588454939516,0.0021209235044653447,-0.0021579067127644497,0.004021747185047348
0.862876254180602,-0.7034019557305967,-0.13650161722871787,0.0016573853329592315,0.0019904564487302607,-0.0024141615565119764,0.00448395382132169
0.8695652173913043,-0.6734587337273527,-0.13811400619714434,0.0016341864565136276,0.0018089907302104896,-0.0027268407246428313,0.00504719410137724
