# n,energy,berry,bcd_x,bcd_y,qmd_x,qmd_y
0.00000022222222222222222,-3.35,0,0,0,0,0
0.006666666666666667,-3.3019752704470373,-0.000003899707304518666,-0.0000000000000000000005380723888556759,-0.000000000000000000009207977776713859,0.000000000000000000002488779772892215,0.0000000000000000000030605741393506464
0.013333333333333334,-3.254678478180739,-0.000029822925224777103,0.00000000000000000008118376202321963,0.00000000000000000005506428835525643,-0.000000000000000000009736167825173462,0.000000000000000000010003680719810935
0.02,-3.2080593776890094,-0.00010100003896245594,-0.0000000000000000005297653955353646,-0.0000000000000000004266024475297719,-0.00000000000000000012420486475406352,0.000000000000000000020733059685729063
0.02666666666666667,-3.162116525035292,-0.00024312636851514334,-0.0000000000000000002035255810261558,-0.000000000000000000008245252551662602,0.00000000000000000023738964282261935,0.00000000000000000042320121197746728
0.03333333333333333,-3.116784186250097,-0.00048462552514350613,0.00000000000000000028422475461749143,0.000000000000000002727103107503713,-0.000000000000000000401361960227771,0.000000000000000001484661429846599
0.04,-3.0721554855533943,-0.0008566026421514127,0.0000000000000000006396183290162264,0.000000000000000003864938615008994,0.0000000000000000023927547882771923,-0.00000000000000000011921383422193566
0.04666666666666667,-3.0281856516378327,-0.0013939546534581936,-0.0000000000000000033065022872727797,-0.000000000000000002289321441013369,-0.0000000000000000000019690769593801763,-0.0000000000000000003378739282011163
0.05333333333333334,-2.984792736885925,-0.002134414772401747,-0.0000000000000000018261692199215117,-0.000000000000000006241066424103773,0.0000000000000000001385156103404252,0.0000000000000000004446248917880647
0.06,-2.942059196669131,-0.003119813291947296,-0.0000000000000000012565496792217596,-0.0000000000000000067593245666927864,-0.000000000000000005685914375468555,-0.0000000000000000008073385479134244
0.06666666666666667,-2.899999583515025,-0.004396200283897622,-0.000000000000000006462793644408956,0.000000000000000009841698232741258,-0.000000000000000001605238715746724,0.000000000000000005762829215887525
0.07333333333333333,-2.8585281545925594,-0.006015887348983693,0.000000000000000013182229545411817,0.000000000000000024604196629983702,0.000000000000000006494134247769198,0.00000000000000000816803682142229
0.08,-2.817710273209048,-0.008030018301835183,-0.0000000000000000007784221258870647,0.00000000000000003744302211782059,-0.00000000000000001441943066741302,0.000000000000000014207903875397162
0.08666666666666667,-2.777443522374252,-0.010501721971512109,-0.00000000000000002007519829204888,0.0000000000000000020762402280707798,0.000000000000000007234224149754345,0.000000000000000009928401991905558
0.09333333333333334,-2.737769105053431,-0.013499375237724497,-0.000000000000000026352101809019057,-0.000000000000000039810381400633285,-0.000000000000000008046097375952838,-0.000000000000000009910677993067049
0.1,-2.6988613402022166,-0.01711881853481006,0.00000000000000006633326898343976,-0.00000000000000006607351091136115,-0.00000000000000003128347044411767,-0.00000000000000004449260728952349
0.10666666666666667,-2.660403709660078,-0.02144301374062839,-0.00000000000000005036877207341145,-0.00000000000000002629807330401234,-0.00000000000000001712714721797045,0.000000000000000032649948517752245
0.11333333333333333,-2.6348098948845253,-0.024791934111500723,-0.00000000000000008523195114097988,-0.00000000000000011033043212512211,0.000000000000000011439346275954598,0.00000000000000004614061261064824
0.12,-2.6136121893647415,-0.02789945313356807,0.00000000000000001771545684522521,-0.000000000000000008430916893111473,-0.0000000000000000582294109273771,0.000000000000000005084739962415718
0.12666666666666668,-2.5926980840530716,-0.03128093112342958,0.0000000000000000603588560031526,-0.00000000000000002542431110587305,0.000000000000000010581030400319857,0.00000000000000002916607808086203
0.13333333333333333,-2.571989285104707,-0.03497385401499994,0.0000000000000000038992226187324816,-0.0000000000000002925891379608059,-0.000000000000000013853072027052848,-0.000000000000000020072234617913732
0.14,-2.551441279857574,-0.039004563172631276,0.00000000000000011223527464733183,-0.0000000000000003429723421349574,-0.000000000000000054571518433075436,-0.00000000000000008045114467789655
0.14666666666666667,-2.531054430105787,-0.04339819663051326,0.00000000000000009249571406210516,0.00000000000000009612502519831022,0.00000000000000005573093527299582,-0.00000000000000010452010988034071
0.15333333333333332,-2.5108427033718526,-0.04817594195788743,-0.000000000000000025408951034438794,0.00000000000000018762464454121731,0.00000000000000011911964673719257,-0.000000000000000004980791470628324
0.16,-2.4907786354370276,-0.05336420035711614,-0.00000000000000003309988739715945,-0.0000000000000001341979855607594,0.0000000000000000797701046540204,0.00000000000000008152873335625076
0.16666666666666666,-2.470855699281907,-0.058991991760511155,-0.000000000000000040569225663985207,-0.00000000000000013303434025730722,0.000000000000000040270508897301316,-0.000000000000000019348210501938
0.17333333333333334,-2.451110740620921,-0.06509050886143826,-0.00000000000000003676332556318021,0.000000000000000011899080927371271,-0.00000000000000003481069396708151,-0.00000000000000009004797203775852
0.18,-2.43156571761487,-0.07170184560507373,0.00000000000000019053543036379957,0.00000000000000033739801157052625,0.00000000000000020975023087632245,-0.00000000000000005844330932828017
0.18666666666666668,-2.412190625077115,-0.07887646367726671,-0.00000000000000004625667570631903,-0.00000000000000040886610150222416,-0.000000000000000017464157676197736,0.00000000000000014638498690914078
0.19333333333333333,-2.393006636783965,-0.08668675370628268,-0.0000000000000002770085439866534,-0.00000000000000016976925716412608,0.0000000000000002520336160417421,-0.00000000000000025007219070710646
0.2,-2.373979987844673,-0.09517889467004852,0.00000000000000016800039456732616,0.00000000000000018176927655835367,-0.00000000000000010995675822613385,0.00000000000000009625299289436507
0.20666666666666667,-2.3551268139460526,-0.1043405014606058,0.0000000000000004823350815350153,0.00000000000000019047761503745287,-0.00000000000000019047879436938983,0.00000000000000014434625782643885
0.21333333333333335,-2.3364311015379577,-0.11424542236821496,0.00000000000000016171686872849912,-0.00000000000000008470986257768135,-0.00000000000000005527826332018904,0.00000000000000014099787242536926
0.22,-2.3179131240236885,-0.12495087578370899,-0.0000000000000001361741065812016,-0.000000000000000488245020899187,-0.0000000000000000561709835913451,0.00000000000000020169711601632787
0.22666666666666666,-2.2995942644354286,-0.1364845485266611,0.00000000000000038966800096047557,-0.0000000000000008967412418931291,-0.00000000000000021500992719530275,0.00000000000000018900545667661614
0.23333333333333334,-2.2813953783159096,-0.14898677556521225,0.00000000000000033205376213469533,-0.0000000000000011148027825937102,0.0000000000000003591200338228014,0.0000000000000006549218730949078
0.24,-2.263427299935236,-0.1627216117816028,0.00000000000000008579507038981481,0.0000000000000000026513604420517228,0.00000000000000005029718797370798,0.00000000000000020159422102166847
0.24666666666666667,-2.245641593981737,-0.17754701630347614,-0.0000000000000002779428137849889,0.00000000000000018889583670046005,-0.00000000000000011521335621404618,0.00000000000000011255119098707222
0.25333333333333335,-2.228076093395129,-0.19354956124265446,0.00000000000000004657358175386472,-0.00000000000000028304930244254934,0.000000000000000030155276422938445,0.00000000000000032442412410639286
0.26,-2.2107066778762303,-0.21081377174826313,0.000000000000000594951864580954,-0.000000000000000473117733820342,0.0000000000000001543832969392151,0.00000000000000041109423690173806
0.26666666666666666,-2.1934598750988257,-0.22946028765640136,-0.00000000000000021674319477114087,0.0000000000000010165514260379726,-0.0000000000000004656610194372787,-0.0000000000000003054116962734186
0.2733333333333333,-2.1765041435023,-0.25013219522778296,-0.00000000000000013492756235240644,0.00000000000000010140137101448871,-0.0000000000000001287149609714415,-0.00000000000000004743730406568836
0.28,-2.159706472443982,-0.2725373650327885,-0.0000000000000008352636217447106,-0.0000000000000009481885037925796,-0.00000000000000020073265052182225,0.0000000000000000523987919521358
0.2866666666666667,-2.1431158439822933,-0.29675089311682723,-0.0000000000000011437755434377393,-0.0000000000000012548244896473923,-0.00000000000000009102807106441261,-0.00000000000000006122804851157342
0.29333333333333333,-2.1267571341524527,-0.3228109394126935,0.0012156888260377939,-0.0000000000000005040726644020958,0.0000000000000004773150280678303,-0.00043355645365144186
0.3,-2.1106674082349297,-0.3518345582317106,0.019111010112174313,-0.000000000000001499315145399796,0.000000000000000018964917732634902,-0.00681564360258771
0.30666666666666664,-2.094793814412748,-0.3836663277354281,0.022932803400517655,-0.000000000000001236853120760453,-0.00000000000000014570415255946086,-0.009396977513388569
0.31333333333333335,-2.0791616948597365,-0.4180364987390073,0.021194329050627774,-0.0000000000000009358079624727398,-0.00000000000000013294712728975165,-0.009976560453022408
0.32,-2.0638433090700774,-0.4552614223728001,0.019752272094612715,-0.0000000000000015958604823538862,-0.0000000000000000011754477221081095,-0.00961634164030459
0.32666666666666666,-2.048818066631829,-0.4976265477909581,0.018576647430302476,-0.0000000000000009099273761545619,0.0000000000000000775445991179415,-0.009051967219092122
0.3333333333333333,-2.034039990475089,-0.5436350480812095,0.017308528990293764,0.00000000000000005463486656424262,-0.000000000000000023748379374891494,-0.00836940505737973
0.34,-2.01952735300034,-0.5934498631211048,0.015892217119322975,0.0000000000000011865013707843896,-0.00000000000000033920534854736155,-0.007568229609186266
0.3466666666666667,-2.0055603000350604,-0.6512529860998918,0.014209143096270796,0.0000000000000004003780504307888,-0.0000000000000007373271639092594,-0.006648734347159787
0.35333333333333333,-1.9918549202829041,-0.7140371415291037,0.012428526024450489,-0.00000000000000011201770719250642,-0.00000000000000039604802610974384,-0.005702823183904327
0.36,-1.978526409085562,-0.784223620494989,0.010513467524123608,0.000000000000000007063516898217205,0.000000000000001164979792642736,-0.0047248960900168665
0.36666666666666664,-1.9659222840029302,-0.8662229980485551,0.008557653814636617,-0.00000000000000012202014724915656,0.000000000000001039323545813866,-0.003777396697648563
0.37333333333333335,-1.9535706488031297,-0.9523398446144783,0.00658763458991867,-0.00000000000000033760343125620245,0.00000000000000032576168698652263,-0.002840503094976358
0.38,-1.9424000478626124,-1.0655838226457393,0.004771899356570382,-0.00000000000000018904954124082202,0.0000000000000003896791199254938,-0.0020332277909526973
0.38666666666666666,-1.9313179104194271,-1.1807146046613333,0.002969323738292795,-0.00000000000000007424506718828037,0.0000000000000004740869715723992,-0.0012366889633053232
0.3933333333333333,-1.9238942407022601,-1.3706798107269293,0.0017462789619787438,-0.0000000000000026990531688211667,0.0000000000000005746597446389099,-0.0009067947017116777
0.4,-1.9164705709850929,-1.560645016792527,0.0005232341856646829,-0.000000000000005323861270454075,0.0000000000000006752325177054214,-0.0005769004401180297
0.4066666666666667,-1.9087398294128128,-1.745113001285678,-0.0006023616602638692,-0.000000000000007467102625297179,0.0000000000000007632528350448657,-0.000268600758632491
0.41333333333333333,-1.8972615137214413,-1.8624916548982153,-0.0005386687994454515,-0.000000000000003733194880234003,0.0000000000000006980801539687754,-0.00022384619917053568
0.42,-1.8854205236616206,-1.973782631115187,-0.0004797408467088053,-0.00000000000000044121220879806906,0.0000000000000008079435986928573,-0.00018514298233039336
0.4266666666666667,-1.8718626531052884,-2.0562548776430596,-0.0004433697065427472,0.0000000000000007587214902373126,0.00000000000000174641842793888,-0.00017508648836048554
0.43333333333333335,-1.857719590893071,-2.1323701326362134,-0.00041769544026277794,-0.0000000000000006436738415659573,0.0000000000000015714071957028295,-0.0001686825916723987
0.44,-1.8430869602377946,-2.2030574280891666,-0.0004008958833030855,-0.000000000000003774886341278046,0.0000000000000005640926890842472,-0.00016530210646207625
0.44666666666666666,-1.827937644512036,-2.2666582246409437,-0.0003925438732131681,-0.0000000000000031833955788105548,-0.00000000000000009364609242602947,-0.0001647123831190042
0.4533333333333333,-1.8124002528301018,-2.3271713560545635,-0.0003873982350741025,-0.00000000000000018347341552867326,-0.0000000000000006737528816430115,-0.0001651557267295746
0.46,-1.7965843090980462,-2.3847724176778353,-0.00038491917091241134,0.000000000000002227796627816476,-0.0000000000000007697402025399315,-0.0001664299699800553
0.4666666666666667,-1.7806158418158864,-2.439009897659708,-0.0003848284842740886,-0.0000000000000015749827964030314,0.0000000000000004885217556852872,-0.0001683864408247478
0.47333333333333333,-1.7642084139963878,-2.49066432403313,-0.0003865130144757517,-0.000000000000004466758010851991,0.0000000000000019333720276516768,-0.00017080614244429254
0.48,-1.7476532194008472,-2.5402568455672085,-0.00038955059275935983,-0.000000000000004232980686691798,0.0000000000000009998587584235,-0.00017358536136715725
0.4866666666666667,-1.7309579945700242,-2.587838997357359,-0.0003937061202947705,-0.0000000000000021791269885602497,-0.0000000000000006789154705806733,-0.0001766268726279749
0.49333333333333335,-1.7140413956749558,-2.63341830533618,-0.0003985668349493357,-0.0000000000000020509565445905567,0.000000000000001448694596340766,-0.000179742612859442
0.5,-1.69695997081923,-2.676892883255953,-0.00040465185075804676,0.0000000000000000677579226422696,-0.0000000000000011475453095265903,-0.00018311532149072122
0.5066666666666667,-1.6798327986339128,-2.7186398968122742,-0.000411351663403647,0.0000000000000038406144348632075,-0.000000000000001270111052151894,-0.00018654711424250043
0.5133333333333333,-1.66260585542369,-2.758786854417685,-0.00041861957624968877,0.000000000000004077055123617677,0.0000000000000000802536829833054,-0.00019001979957802666
0.52,-1.6452568091430964,-2.797406760602198,-0.0004264133786905305,-0.0000000000000012323372487100252,0.0000000000000010085324525016712,-0.00019351331988856591
0.5266666666666666,-1.6279113122153201,-2.834180470234572,-0.0004346593518399634,-0.000000000000001155645154169245,-0.0000000000000019599901743061575,-0.00019696259843380762
0.5333333333333333,-1.610389580632313,-2.868934589563078,-0.00044349998644862204,0.0000000000000012217917186998229,-0.0000000000000004587030156983348,-0.0002004226016145963
0.54,-1.5928779739183923,-2.90217881754297,-0.0004526740852489555,-0.00000000000000015085185667561485,0.000000000000001051856638574215,-0.0002038173116574814
0.5466666666666666,-1.575383453667087,-2.9337218846477544,-0.00046221169125175416,-0.0000000000000022707111240272363,0.0000000000000011040641860644698,-0.00020716140703091665
0.5533333333333333,-1.557876370416825,-2.9633817227359156,-0.000472137360471983,-0.0000000000000016640789526746148,-0.0000000000000006176508460650636,-0.0002104643645994352
0.56,-1.5403102852312744,-2.991079433360985,-0.0004823431159306432,0.0000000000000010135869075448441,-0.000000000000002451689889587591,-0.0002136442061595424
0.5666666666666667,-1.522840599348534,-3.0163707234069084,-0.0004929350001629337,-0.0000000000000013450049505137787,-0.0000000000000015323326575710284,-0.00021674546963084657
0.5733333333333334,-1.5053282016831713,-3.03971031843456,-0.0005038390427830749,0.0000000000000004686622704140676,-0.0000000000000010172220649822917,-0.0002197645906031184
0.58,-1.4878616044547577,-3.0608799871564853,-0.0005149845357535817,0.0000000000000012737478388501554,-0.000000000000001347730224356757,-0.00022267769981388898
0.5866666666666667,-1.4705125008807254,-3.079665862784988,-0.0005263166922420991,-0.0000000000000020268210035717084,-0.0000000000000017423198478474774,-0.00022547141054608043
0.5933333333333334,-1.4532206030639696,-3.095390896948728,-0.0005379041961142847,0.0000000000000002401803656818699,0.000000000000001343747146754072,-0.00022813805115228671
0.6,-1.4360639375845319,-3.1078089885555116,-0.0005497423423179333,0.0000000000000018828300162787675,0.0000000000000012392865181862292,-0.00023067359733244566
0.6066666666666667,-1.4189949492215976,-3.1171166447850207,-0.0005617323720130488,0.00000000000000001957927540353149,-0.0000000000000004531031702089117,-0.0002330765684164359
0.6133333333333333,-1.4020758926233545,-3.1229474427559993,-0.0005738307096608958,-0.000000000000002366706316790863,-0.0000000000000018976908065723435,-0.0002353423475046653
0.62,-1.385373232430152,-3.1250434761707795,-0.0005860003118739625,-0.0000000000000015775035892364344,-0.000000000000001374398212913351,-0.00023747432214476027
0.6266666666666667,-1.368861085774687,-3.1216390340177953,-0.0005983569221488756,-0.0000000000000024636627039234228,-0.000000000000001115426717223196,-0.00023943872034574277
0.6333333333333333,-1.3525551452119928,-3.113117657749136,-0.0006107702209021829,0.000000000000001032852901115374,-0.0000000000000019261377881491337,-0.00024126474541879552
0.64,-1.3365128928212713,-3.0992637473762414,-0.0006231685445484057,0.0000000000000032104759715123718,-0.000000000000001935632623769805,-0.0002429531518481453
0.6466666666666666,-1.3207860756168843,-3.0797302855021327,-0.0006354984267513201,-0.00000000000000018907248122568088,0.00000000000000026636249525415895,-0.0002444996516491966
0.6533333333333333,-1.3054177793772792,-3.049655550804433,-0.0006478389467190389,0.0000000000000023449781249852034,-0.0000000000000006176723247986549,-0.00024586026982162406
0.66,-1.2905074468276811,-3.0114426962574545,-0.000659965943922516,0.0000000000000015811468416627463,-0.0000000000000014387317789290325,-0.0002470888592711372
0.6666666666666666,-1.2760024152062837,-2.965838244187713,-0.0006718980882402221,-0.0000000000000017238379789872988,-0.000000000000001985429344549696,-0.00024820332589377405
0.6733333333333333,-1.262261007175476,-2.9014331322049207,-0.0006834402010234571,-0.000000000000000013533286356273808,0.0000000000000002880194591111845,-0.00024911328598374523
0.68,-1.2492467812757173,-2.8227861637294325,-0.0006944743505473632,-0.00000000000000003953976177215994,0.0000000000000017171581218714504,-0.000249910586141245
0.6866666666666666,-1.2370749440004651,-2.727641020465191,-0.000704920060871438,-0.000000000000002076938863759882,0.0000000000000021682237161634476,-0.0002505773778036932
0.6933333333333334,-1.227470307159077,-2.5763533568976835,-0.000713264680413978,-0.0000000000000025947765425540537,0.000000000000002507583782965315,-0.00025103799775436417
0.7,-1.2191283974294966,-2.3974509104807282,-0.0007205758378788333,-0.0000000000000023651885892030236,0.0000000000000027919993287862745,-0.0002513972081669583
0.7066666666666667,-1.2106126986106989,-2.2215580911658823,-0.0007280507246746522,-0.0000000000000020954846283236034,0.0000000000000029432403848390886,-0.00025175639969874514
0.7133333333333334,-1.199058421243085,-2.0982864599450877,-0.0007383883023051939,-0.0000000000000011243808241706052,0.0000000000000007660202602691484,-0.000252115261113053
0.72,-1.1868704591206207,-1.9847393974291743,-0.000749339283494624,-0.00000000000000030345835671503607,-0.0000000000000013089859308951985,-0.00025246256513876934
0.7266666666666667,-1.171481864962866,-1.9203094485694907,-0.0007633884599082756,-0.00000000000000024107583148952684,-0.000000000000002867727232922422,-0.0002527514947947578
0.7333333333333333,-1.1550489559769104,-1.8674295522862008,-0.0007786200114694462,0.0000000000000028632596184785484,-0.000000000000002538268872001862,-0.0002529024826858068
