# n,energy,berry,bcd_x,bcd_y,qmd_x,qmd_y
0.00000022222222222222222,-3.4499999999999997,0,0,0,0,0
0.006666666666666667,-3.4019873296944403,-0.0000038145864691711496,0.0000000000000000000032510570797148496,0.0000000000000000000009514173665409318,0.000000000000000000005765000623394684,-0.00000000000000000000033617312041198687
0.013333333333333334,-3.354667842094253,-0.000029648554898974434,-0.0000000000000000000321518780088563,-0.00000000000000000001733074416802354,0.00000000000000000004981493123715462,0.000000000000000000016484298088971444
0.02,-3.3080062652802513,-0.00010088670114255593,0.00000000000000000026111698703964336,-0.00000000000000000021021337643805584,-0.0000000000000000004439559754809996,-0.00000000000000000009254508632517536
0.02666666666666667,-3.2620633312356606,-0.00024332336491032886,-0.00000000000000000014151532514932146,0.00000000000000000029897449886935648,-0.000000000000000000042169328581060095,-0.00000000000000000021915512327319023
0.03333333333333333,-3.2167662378600697,-0.00048523704168130664,0.0000000000000000006670272043058803,0.0000000000000000020908209135900602,-0.0000000000000000009420345976255485,-0.0000000000000000004769773237872628
0.04,-3.1721184745550954,-0.0008577119132466881,0.000000000000000000015632820871986223,0.0000000000000000022618670120450107,-0.00000000000000000015869061997735076,-0.0000000000000000023426902529497847
0.04666666666666667,-3.1281247867826734,-0.001395163207323634,-0.000000000000000004705621938078457,0.0000000000000000005796294428119459,0.0000000000000000014127510526239249,0.0000000000000000000024331525204989893
0.05333333333333334,-3.0848335599517873,-0.0021346909113344587,-0.0000000000000000012345775300516752,-0.00000000000000000018400144849887913,0.000000000000000003788544725322285,0.0000000000000000016460010851976713
0.06,-3.042079763759285,-0.003116944118495906,0.00000000000000001396331936216948,-0.000000000000000014810712140209316,-0.0000000000000000007918733767597837,0.0000000000000000006504145136276693
0.06666666666666667,-3.0000108094528968,-0.004386625869597675,0.00000000000000000718001909020759,0.00000000000000002306665833406718,0.00000000000000001773160179142004,0.000000000000000007837662756760771
0.07333333333333333,-2.9585237430802698,-0.00600760966367833,-0.00000000000000001990721021723916,-0.00000000000000000028806505553924144,-0.0000000000000000159077525474697,0.000000000000000006901704038605819
0.08,-2.917731981796587,-0.00802950966873994,-0.000000000000000017521320722088078,-0.000000000000000024143735799833808,0.000000000000000003962461306715386,-0.0000000000000000011374194891836526
0.08666666666666667,-2.8774202416429873,-0.010509226831298285,-0.00000000000000002864210432752875,0.000000000000000043714949094006983,0.000000000000000019711054424046587,0.000000000000000003211953629211624
0.09333333333333334,-2.8378407434681665,-0.013511220493221463,-0.000000000000000031102469385865957,0.00000000000000007799463373720849,-0.000000000000000008827045603993634,0.000000000000000002394856789860362
0.1,-2.7988582465350076,-0.01710435231717587,-0.00000000000000000307164859179771,0.00000000000000009044838613012052,-0.00000000000000002698839303602554,0.0000000000000000009095730912509577
0.10666666666666667,-2.7604978492356698,-0.021435425318649174,0.000000000000000028606295973906275,-0.00000000000000001349711380714807,0.0000000000000000012559025344291185,-0.00000000000000003044117140854863
0.11333333333333333,-2.7226603868687906,-0.026538636417797468,-0.00000000000000004621826491603725,0.000000000000000021413703230391556,0.00000000000000003730937391710186,0.000000000000000024112013830077363
0.12,-2.685403697720718,-0.032502100775503334,-0.000000000000000039589884164351054,0.0000000000000003789915338967061,0.00000000000000007286276338521723,0.00000000000000002927344642923692
0.12666666666666668,-2.6489092372456393,-0.03955665356701952,-0.000000000000000046250792412098307,0.00000000000000014888129547392493,0.000000000000000033302967884674556,0.000000000000000018459244925292292
0.13333333333333333,-2.6128854591600814,-0.047722179095012925,0.00000000000000001560923715853982,-0.000000000000000038617420227207535,-0.0000000000000000788842175675403,-0.00000000000000013355297894592233
0.14,-2.5775912169287367,-0.057194267709804805,-0.0000000000000001470144812127907,-0.0000000000000003025554548367483,0.00000000000000001181653759059961,0.00000000000000002196561871500723
0.14666666666666667,-2.5461072655165964,-0.06705485251821128,-0.00000000000000022240260329258,-0.0000000000000004867884835306877,0.000000000000000004913508812602549,-0.000000000000000014952554071127948
0.15333333333333332,-2.5258069161487384,-0.07421069359358667,0.00000000000000015282921758794752,-0.0000000000000004977084811121161,-0.00000000000000007125172900753563,0.00000000000000006531155889771902
0.16,-2.505954582712635,-0.08187069581245286,0.00000000000000010524475300618343,0.000000000000000026905704201976206,-0.000000000000000030208749445293656,0.0000000000000001457465533367728
0.16666666666666666,-2.486282311349332,-0.09030573796021792,-0.00000000000000022585216911158713,0.00000000000000011651292887179441,-0.00000000000000030412507862310095,0.00000000000000020739191119172946
0.17333333333333334,-2.466765766944057,-0.09944693489920228,-0.000000000000000381163584712366,0.0000000000000005314765036818528,0.00000000000000009544375974854313,-0.0000000000000000011260128145075609
0.18,-2.4474934106989505,-0.10937029670288821,0.000000000000000008977097650250077,0.0000000000000006351888370767973,0.00000000000000009133420430648154,-0.00000000000000002844110974384416
0.18666666666666668,-2.428408802085527,-0.12012714963247197,-0.00000000000000021876345062277324,0.00000000000000031918505975775207,-0.00000000000000006341612081668786,-0.00000000000000001754249522422011
0.19333333333333333,-2.409483069895058,-0.1317757553592295,-0.0000000000000005140019033456095,-0.0000000000000005876595195991803,-0.00000000000000010791410955475921,-0.00000000000000002776200795970099
0.2,-2.390724965194352,-0.144376035425209,0.00000000000000009476524388286683,-0.000000000000001766349754624547,0.0000000000000000193044101035877,-0.000000000000000011010084751661597
0.20666666666666667,-2.3721332123342536,-0.1580626094654136,-0.0000000000000008345011732257087,-0.0000000000000008951586065361175,0.0000000000000004996009448768268,-0.000000000000000104382511467538
0.21333333333333335,-2.3537817015504205,-0.1731207074905329,0.0000000000000000139051331703349,0.0000000000000008970606141054555,-0.00000000000000011657218717222745,0.0000000000000001179120197410957
0.22,-2.335634065872177,-0.18943154532286144,0.00000000000000024207615060650913,0.0000000000000010829888460720514,0.0000000000000003217507173549784,-0.000000000000000009019610183347538
0.22666666666666666,-2.317679831166516,-0.20709719298217907,-0.00000000000000003180365518720283,0.0000000000000006588665221672449,0.0000000000000005919223676925687,0.00000000000000008726327741093195
0.23333333333333334,-2.2999040558810386,-0.22620431691114068,-0.00000000000000028067422173413105,0.000000000000000211479806669228,0.0000000000000002828405820386433,0.00000000000000042135602468836196
0.24,-2.2822996303836054,-0.24696052045640496,0.000000000000000443498643279482,-0.0000000000000004182425321442902,0.00000000000000021727118322482686,0.00000000000000019122135019766027
0.24666666666666667,-2.2649847662088085,-0.2700250461108687,0.0000000000000001930275156236757,-0.000000000000000555250529862173,0.00000000000000001450104396989574,-0.0000000000000005053766794933165
0.25333333333333335,-2.247899187561262,-0.29497751384976745,-0.0000000000000006172515467355758,-0.0000000000000013210512981510929,0.000000000000000300075590236097,-0.00000000000000016612712979561385
0.26,-2.23103352525407,-0.32195295281231173,-0.0000000000000008677749502014599,-0.0000000000000015390224112937408,0.0000000000000004458000653037198,0.0000000000000002729343425245079
0.26666666666666666,-2.214387420949098,-0.3511866123667135,0.0000000000000006828199554070336,0.00000000000000021026655591848218,-0.00000000000000030420135893150136,-0.0000000000000003489259807801354
0.2733333333333333,-2.198103860994847,-0.38404604278228116,0.016408306798595396,-0.00000000000000010726878781727033,0.00000000000000042572305331565554,-0.007295645542618902
0.28,-2.1820153598454577,-0.41978844772966606,0.022039147570004504,0.0000000000000001051686384820479,0.00000000000000038037817577066816,-0.010142684686740634
0.2866666666666667,-2.1661280389526953,-0.4584621233768951,0.01988340141757922,0.0000000000000006802830288686734,-0.00000000000000012415524258648676,-0.009663254235264597
0.29333333333333333,-2.150574011248492,-0.5016755277453919,0.01873572341797431,0.0000000000000009732216067654648,-0.00000000000000005614743619701541,-0.009137583961047862
0.3,-2.1354305476180646,-0.5497884985838822,0.017423393562290626,-0.000000000000000020901997292412475,-0.0000000000000000872112899769857,-0.008430589460776804
0.30666666666666664,-2.12056304659761,-0.6017266196089353,0.01597797536577322,-0.0000000000000005273505119638765,-0.000000000000000034429192935831386,-0.007620767702721238
0.31333333333333335,-2.106109303811389,-0.660346140273786,0.014293133524304917,0.0000000000000021040526639329314,0.00000000000000041170156241477815,-0.006690666427496636
0.32,-2.092056151754722,-0.7270066716905016,0.012436673377916813,0.0000000000000006695243031952104,0.0000000000000005106013895043404,-0.005711126661966454
0.32666666666666666,-2.0782521603974238,-0.7983688091304421,0.01049422872524876,-0.000000000000002543970283784458,0.00000000000000042970240798913687,-0.0047099622196620505
0.3333333333333333,-2.065423638689334,-0.8844008748754748,0.008473941223965747,-0.000000000000003372816075120923,0.00000000000000009582708186551158,-0.003737893726192912
0.34,-2.052992739921876,-0.9783873424003715,0.006495693249761795,-0.0000000000000029142330773876542,-0.000000000000000007642370203005617,-0.0028052469372216306
0.3466666666666667,-2.04146562430357,-1.0904538892053972,0.004612999662113111,0.0000000000000004706308925775976,0.0000000000000004125927358851523,-0.001962204314899769
0.35333333333333333,-2.0311309624445713,-1.228761759464934,0.0029938567550307146,0.0000000000000024036764060608143,0.0000000000000004771169989635561,-0.001248951011650221
0.36,-2.022955946974243,-1.414595145066374,0.001852029023546625,0.000000000000001707341566575103,-0.00000000000000010258467252442267,-0.000770758424201802
0.36666666666666664,-2.014780931503915,-1.6004285306678139,0.0007102012920625353,0.000000000000001011006727089392,-0.0000000000000006822863440124015,-0.000292565836753383
0.37333333333333335,-2.005190915318838,-1.758239463001322,0.00018686559986555147,0.0000000000000008600986173238203,-0.000000000000000748118630507862,-0.00007477403230850345
0.38,-1.9946825836586306,-1.8978642190178674,0.00006492250415418994,0.0000000000000010631647502782875,-0.0000000000000004804569452226032,-0.000025978657530134047
0.38666666666666666,-1.9826021563823466,-2.0129118504101573,-0.0000000000000012451367881619035,-0.0000000000000006833853709847819,0.0000000000000007696926083236891,0.0000000000000012625874322939838
0.3933333333333333,-1.9687317725064064,-2.0999764596682433,0.0000000000000015226764019736775,-0.0000000000000046497295336196015,0.000000000000003138483182105613,-0.000000000000000036382664781532787
0.4,-1.9538054751520215,-2.177615288780563,0.0000000000000022082393685739192,-0.000000000000003699416209815129,0.0000000000000005802315872986425,-0.0000000000000007243656631786311
0.4066666666666667,-1.9384691647727115,-2.250733921705374,0.0000000000000013771453472613376,-0.0000000000000024108782985894305,-0.0000000000000011426307779302921,-0.0000000000000010152363241514688
0.41333333333333333,-1.9227431851809305,-2.318847607400413,-0.0000000000000014790613670610803,-0.000000000000002095827914272206,0.0000000000000001941246512224319,-0.0000000000000007969196864182772
0.42,-1.9064233413057061,-2.3823346238741183,-0.0000000000000009545255439714518,0.0000000000000021000424792318874,0.00000000000000114619267868897,-0.000000000000002145630344828365
0.4266666666666667,-1.8898426255586696,-2.4432697288511576,-0.0000000000000007642091496942875,0.0000000000000009688111203115159,0.0000000000000013460157646840526,-0.0000000000000006180885252069391
0.43333333333333335,-1.87303113189345,-2.5017784637590825,-0.0000000000000007751188830213023,-0.000000000000002332915323686386,0.0000000000000005247889917374232,0.000000000000002119479561859786
0.44,-1.8560067643487042,-2.557843709410261,0.00000000000000016412401361898998,0.000000000000002642243880323935,-0.0000000000000019179290455518494,0.0000000000000006386841422019372
0.44666666666666666,-1.8384812314956342,-2.6120227996152265,-0.0000000000000007456740979024715,-0.0000000000000017762846050242517,0.0000000000000005484721165221718,-0.00000000000000017190986742992705
0.4533333333333333,-1.8208573796342122,-2.664354719107421,-0.0003234109273343034,-0.0000000000000005045865960178254,0.0000000000000009347787871197888,-0.00011885057532556201
0.46,-1.8030905512426973,-2.7151028509901107,-0.0006159472876089846,0.000000000000002843137537658064,-0.0000000000000004778256110620675,-0.00022870961311868775
0.4666666666666667,-1.7850900547954536,-2.7645747065515467,-0.0004779281927803864,0.0000000000000025165571939920864,-0.0000000000000017653533239955108,-0.00018459180156161326
0.47333333333333333,-1.76700834117311,-2.812346588925701,-0.0004316993529999641,0.000000000000005688867986395602,0.0000000000000010151853091934823,-0.00017194075270873208
0.48,-1.7486349070637228,-2.85903895988395,-0.0004075625946541154,0.000000000000003676210870317977,0.000000000000000932967509735603,-0.00016670412931917768
0.4866666666666667,-1.730222243147565,-2.9043940019743166,-0.00039426383329027094,0.0000000000000026555419769938895,-0.0000000000000005129569170965232,-0.0001649815733170508
0.49333333333333335,-1.7117246969793098,-2.948618748550256,-0.00038749224036414923,0.000000000000002223895990223477,-0.0000000000000013068781381477619,-0.0001653071939196988
0.5,-1.6930864646951278,-2.991871666918771,-0.00038496814271226195,0.0000000000000010650136126724251,-0.000000000000000468809914626529,-0.00016691208444107405
0.5066666666666667,-1.674411219036626,-3.0339133573775685,-0.0003852956686976616,-0.00000000000000006565800337873137,0.0000000000000002722707318126011,-0.00016929876557176667
0.5133333333333333,-1.655662828952731,-3.074769345446945,-0.0003878193786890227,-0.000000000000001416920026554757,0.0000000000000015466695316535328,-0.00017217921147414522
0.52,-1.636785373096534,-3.114622064296467,-0.0003921071750258738,0.00000000000000010669909418851545,0.0000000000000005480452821199522,-0.0001755168579110582
0.5266666666666666,-1.6179266328800868,-3.153238504252284,-0.0003975692546385432,-0.0000000000000017427736362387146,0.0000000000000003403892749175174,-0.0001790613941295041
0.5333333333333333,-1.5990106742712398,-3.190768509885446,-0.00040397331440761736,-0.000000000000003201352624278679,0.0000000000000004098560669772826,-0.00018273321440348322
0.54,-1.5799973605538336,-3.2273166391553154,-0.00041121558246827813,-0.0000000000000011509849779326205,0.0000000000000005740696435637717,-0.00018649779886674547
0.5466666666666666,-1.561060771853501,-3.2627014897280238,-0.00041907883234658177,-0.000000000000000848279830092773,0.0000000000000031518455410626135,-0.00019026373978522172
0.5533333333333333,-1.5420330288526765,-3.2966441217079314,-0.0004278437460902976,0.0000000000000014324001232016789,-0.000000000000001712896583633157,-0.0001941240631017795
0.56,-1.5230820886980536,-3.329276709739998,-0.0004370739143696398,0.0000000000000023467490219402727,-0.000000000000000952838843527859,-0.00019791318839818808
0.5666666666666667,-1.5041979859113277,-3.3604297173194206,-0.0004467093221353417,0.000000000000003119384443189186,-0.000000000000001030931129589173,-0.0002016268168438072
0.5733333333333334,-1.4853042830323417,-3.3901037448459315,-0.0004567642848580218,0.00000000000000118896889870995,-0.0000000000000004811301762263103,-0.00020527165691408176
0.58,-1.466416311701328,-3.418260643595841,-0.00046722767617083717,-0.0000000000000014344016351238591,0.00000000000000027765633154532884,-0.00020884355352152772
0.5866666666666667,-1.4476262551653274,-3.444809966289892,-0.00047804761258633653,0.0000000000000007036656829442715,-0.0000000000000014363077306930321,-0.00021232712995517824
0.5933333333333334,-1.42885437674507,-3.4694673211905283,-0.0004892510564268497,0.0000000000000022476554216868062,-0.00000000000000039493756585686043,-0.00021570198602102262
0.6,-1.4101989253921696,-3.491603953548929,-0.0005007960361074598,-0.0000000000000013177260905641714,0.0000000000000014539392706405559,-0.0002189507984293036
0.6066666666666667,-1.3916845273528682,-3.511616323273918,-0.00051256633789629,-0.0000000000000016338800731465402,0.000000000000001008903752771544,-0.00022206322988253566
0.6133333333333333,-1.3732917743082858,-3.529254825751269,-0.0005245569400871514,-0.0000000000000012197702305687053,-0.0000000000000000027505918333729314,-0.00022503950981210414
0.62,-1.3550128603706377,-3.544318604567744,-0.0005367618540589242,-0.0000000000000020664531130938873,-0.0000000000000007214283839654861,-0.00022787987438024188
0.6266666666666667,-1.3368607465872882,-3.556713143943464,-0.0005491617863281471,-0.000000000000003915475427249816,-0.000000000000001805235414216289,-0.00023058169977677152
0.6333333333333333,-1.3189319255657714,-3.5647820352724113,-0.0005617575555018569,-0.0000000000000011843860683835958,-0.0000000000000010461057840535684,-0.00023309400882265348
0.64,-1.301194413752529,-3.569191692173241,-0.0005744870928188536,-0.000000000000001211267801368191,-0.0000000000000005425602079515456,-0.00023545287525373332
0.6466666666666666,-1.2836485945340763,-3.569612919990796,-0.0005873286014584214,-0.0000000000000012585474045380028,0.00000000000000003500673371248966,-0.00023766454665054027
0.6533333333333333,-1.266330487463328,-3.565644069007179,-0.0006002471728589014,-0.00000000000000006491921727136249,0.00000000000000037760520837276663,-0.00023972974804906377
0.66,-1.249363951619308,-3.556043051747989,-0.0006131837494779564,0.000000000000002794774423630851,-0.0000000000000007416937298428938,-0.0002416252719657054
0.6666666666666666,-1.2327866689020885,-3.538888753082174,-0.0006260807262655726,0.0000000000000005609895004395819,-0.0000000000000014132242122991098,-0.00024331683456127706
0.6733333333333333,-1.216512090627557,-3.514961076686717,-0.0006389448028149415,-0.00000000000000039176461603839633,-0.000000000000000869178264274469,-0.0002448692131876506
0.68,-1.200560610455782,-3.484064596197809,-0.0006517432231020902,-0.000000000000000024598771000542332,0.00000000000000042332357261247657,-0.0002462898734018769
0.6866666666666666,-1.1852815009842845,-3.4409625014953322,-0.0006642535188247111,-0.0000000000000028758072577734166,-0.0000000000000004389156602102013,-0.0002475000207180995
0.6933333333333334,-1.1706792713589098,-3.3851148244411022,-0.0006763803441221708,0.0000000000000001906110853745945,0.0000000000000001665298736351168,-0.0002485488393655114
0.7,-1.1565444387439383,-3.3201815369817886,-0.0006882318288631307,0.00000000000000562927429582356,0.0000000000000013969776869342742,-0.00024949347174409885
0.7066666666666667,-1.1437414936954773,-3.2266079682188264,-0.0006991967747813505,0.0000000000000012641021853338489,0.0000000000000006543833471986719,-0.00025021093121363724
0.7133333333333334,-1.13208788858589,-3.109255306407142,-0.0007092321825335089,-0.0000000000000016619349122508668,0.00000000000000008448426437551897,-0.00025082864255836505
0.72,-1.1228935461712561,-2.941022104838149,-0.0007172786412741414,-0.0000000000000015086297451739135,-0.00000000000000011589576794266106,-0.00025123292110228163
0.7266666666666667,-1.1136992037566218,-2.772788903269153,-0.000725325100014774,-0.000000000000001355324578096958,-0.0000000000000003162758002608444,-0.0002516371996461982
