# n,energy,berry,bcd_x,bcd_y,qmd_x,qmd_y
0.00000016666666666666665,-3.097237012702918,0.000000004282167709913044,0,0,0,0
0.006688963210702341,-3.0493091791369156,0.00018314503197240878,0.00000000000000000050389534820412455,-0.000000000000000000226430987028873,-0.0000000000000000002420445854865728,0.0000000000000000006218893731013587
0.013377926421404682,-3.001868043679186,0.00039487470378497293,0.000000000000000001181696928347588,0.0000000000000000005170866914656714,-0.0000000000000000019961570884921056,0.000000000000000001122912393349884
0.020066889632107024,-2.954880349933216,0.0006473898848694751,-0.0000000000000000013470571562299471,0.0000000000000000011650975064959305,0.0000000000000000006289019105985669,-0.0000000000000000014929873446285265
0.026755852842809364,-2.9203605556285877,0.0008184530565559011,-0.000000000000000000944318213901241,0.000000000000000001925942984787507,-0.0000000000000000030219163350739673,-0.0000000000000000013660297611601414
0.033444816053511704,-2.89636187323036,0.0008931146508363086,-0.0000000000000000007727031649484435,-0.0000000000000000019109537079839308,-0.0000000000000000053482341721237605,0.00000000000000000017491036063371882
0.04013377926421405,-2.8729593865785183,0.0009751434731060292,0.00000000000000000007263283587809169,0.00000000000000000023657100730383717,-0.0000000000000000032121563551907486,0.0000000000000000006181960484438077
0.046822742474916385,-2.8496723720448034,0.0010699148167759426,0.0000000000000000010005015314628508,0.0000000000000000021595329082471043,-0.0000000000000000008962664233125147,-0.00000000000000000021087585449911886
0.05351170568561873,-2.826522031727141,0.0011768780027249241,0.000000000000000001774728319304709,0.000000000000000003124963249898853,-0.0000000000000000063284413510003304,0.00000000000000000013215904442895885
0.06020066889632107,-2.803494284000733,0.0012970530362732425,-0.000000000000000001071922025293842,0.000000000000000004831072459209784,-0.000000000000000003775533157363988,-0.000000000000000003094296390638742
0.06688963210702341,-2.780556573636922,0.0014308515262182822,-0.0000000000000000013724886535867447,0.0000000000000000058469732610777096,-0.000000000000000005475273034228927,-0.0000000000000000003854235436937294
0.07357859531772576,-2.7577838341696506,0.0015793834981901204,0.00000000000000000005850012458577085,0.000000000000000009847233721351847,-0.000000000000000008802598366159013,-0.0000000000000000010598185077603812
0.0802675585284281,-2.7351086133898534,0.0017420111260539298,-0.000050756438999583274,0.000025866469358694796,0.00005405936950301759,-0.00004315865186167462
0.08695652173913043,-2.7125688929048293,0.0019218138586404418,-0.00004337932568144546,0.00001919992104155927,0.00004344235952158991,-0.000034508474870417005
0.09364548494983277,-2.6901675279226946,0.0021175584043190065,-0.00004177001040890438,0.000016240767393186184,0.00003868457259442536,-0.000030910996482663326
0.10033444816053512,-2.6678600040554743,0.0023315979924885414,-0.00004266728928391413,0.000014778858928233822,0.00003580978055959676,-0.000029258225732068708
0.10702341137123746,-2.6456969141459328,0.002564744746251806,-0.000044738763884781124,0.00001395025572305435,0.00003302805932329687,-0.0000282809243027362
0.11371237458193979,-2.623651084699447,0.002816266881851732,-0.000047558591363503645,0.000013442852094149755,0.000029484986432404405,-0.000027526101308510264
0.12040133779264214,-2.6017493625308665,0.0030889593527329085,-0.000050930206317100715,0.000013109103585127136,0.00002452836790202642,-0.00002676779851478354
0.12709030100334448,-2.5799741825594853,0.003382495817858725,-0.000014346606077861883,-0.000010449780768311338,0.00002795048485350812,-0.00007459540984092189
0.13377926421404682,-2.558349580525812,0.0037019873976976403,-0.00000786965089580674,-0.000017004066079099375,0.00001860739942842847,-0.00008777997643895943
0.14046822742474915,-2.536832198390799,0.004045239600282232,-0.000021446107984423345,-0.000012482765048613338,0.00000019239161779695512,-0.00007628411555742754
0.14715719063545152,-2.5154500981475296,0.004418441482360138,-0.000028964171252130575,-0.00001198756664199105,-0.000020685108243708114,-0.00007067641192722127
0.15384615384615385,-2.494231137919826,0.004820356477596001,-0.00003482282461032916,-0.000012978385534409371,-0.00004681716147145686,-0.00006569459663339045
0.1605351170568562,-2.473098751572327,0.0052585338971557595,-0.00004007837774115546,-0.00001495601241735088,-0.00008041610119968066,-0.00005986872427105002
0.16722408026755853,-2.4521639166932756,0.005736950790383763,-0.000045049445591080854,-0.000017759726055878516,-0.00012361192544064543,-0.000052420915193920935
0.17391304347826086,-2.4313613026801284,0.0062576916561914355,-0.0000498888543062062,-0.000021366995124143792,-0.00017927273703373858,-0.000042614566182201094
0.1806020066889632,-2.410721039211558,0.006828962079583436,-0.00005467378789878988,-0.000025815293105839678,-0.0002513758468625179,-0.000029695823580853597
0.18729096989966554,-2.3902777097231116,0.007469322680873568,-0.00005937248987254576,-0.0000311364023390749,-0.00034389579757880724,-0.000013054224939940202
0.1939799331103679,-2.36996354846476,0.008189911651194873,-0.00006394256421596366,-0.00003742086027844981,-0.00046289976131919005,0.00000823459356463087
0.20066889632107024,-2.3498850056360703,0.00900718905339613,-0.0000682439168660005,-0.000044738329770838,-0.0006148267137738942,0.00003501931525079699
0.20735785953177258,-2.329987593832161,0.009953159458337323,-0.0000720689058994833,-0.00005318282783471812,-0.0008088922443715878,0.00006847655664071823
0.2140468227424749,-2.310323260378872,0.011079941201202927,-0.00007522372754387929,-0.00006287211368035051,-0.0010561978286511384,0.00010975208367386923
0.22073578595317725,-2.2908980022442686,0.012464997108210763,-0.00007725827443998805,-0.00007396178257315899,-0.0013737681339581636,0.00016079353925652323
0.22742474916387959,-2.271788443948293,0.01425979880802958,-0.00007772419874983246,-0.00008649296451394218,-0.0017770500706150946,0.00022296684189471337
0.23411371237458195,-2.2530857105630036,0.01670359189387936,-0.0000760736940698533,-0.00010047876735098352,-0.0022853435407078153,0.0002978139122858279
0.2408026755852843,-2.2349497350970506,0.020302456201802856,-0.00007166051084598806,-0.0001158553483490107,-0.002916487513626915,0.000386674949228484
0.24749163879598662,-2.217764018240554,0.02652449666790205,-0.00006401558485793762,-0.00013222910857096533,-0.0036733796426706507,0.0004890781807949608
0.25418060200668896,-2.20161574245934,0.03627000787453774,-0.00005295816467228358,-0.0001492858299225625,-0.004553624730616188,0.0006045113863290373
0.2608695652173913,-2.185490000626235,0.046891311478400116,-0.00003740553629177156,-0.00016799460164522022,-0.005622602046763818,0.0007416941381882835
0.26755852842809363,-2.1665822228371403,0.05066121165686901,-0.000011157488371608184,-0.00019246412655793586,-0.0072013254742533655,0.0009419838089929763
0.27424749163879597,-2.1460534382842775,0.05015216696477951,0.000029828310657961134,-0.00022238065099048038,-0.009403490201092107,0.0012268576089008157
0.2809364548494983,-2.124383878413029,0.045724936276777664,0.00009007901559905509,-0.0002579166831769306,-0.012367948731923324,0.0016408595068361786
0.28762541806020064,-2.1018083313840124,0.037235352340434937,0.00017281127617070207,-0.00029952139927887723,-0.016159409593558195,0.0022723468175637855
0.29431438127090304,-2.0787792077070204,0.024038861666140946,0.0002738000016173232,-0.00034700210172959253,-0.020507623380943783,0.003270842301300675
0.3010033444816054,-2.056373001575814,0.004403317623669729,0.00037110223288135255,-0.00039755098154199605,-0.024339102031777873,0.004823512069467268
0.3076923076923077,-2.036559551784672,-0.024235706535430578,0.00042308688560298833,-0.00044134193697459794,-0.025697361702813577,0.006933568810766911
0.31438127090301005,-2.01784332994358,-0.0563181906338482,0.0003948939817874402,-0.00046258982508666426,-0.022564285426727018,0.009572409168878025
0.3210702341137124,-1.9982191831467346,-0.08696734601047676,0.00022559541356033917,-0.00038320390552413786,-0.010468103829467229,0.0117745488869111
0.3277591973244147,-1.976013775502571,-0.10802302187492492,0.000023169474349327336,-0.00021968215668732296,0.005556367385301161,0.012702929551002268
0.33444816053511706,-1.9507833214023855,-0.11220701713294544,-0.000052658731935537986,-0.000144639372840308,0.012777497975258685,0.016008875594820837
0.3411371237458194,-1.92437588789827,-0.10660614688517188,-0.00011564274138190249,-0.00009222100816629594,0.018374566853919992,0.02242820880887125
0.34782608695652173,-1.897438225062119,-0.09405061824415188,-0.0001993232857874432,-0.000010383566075189448,0.026555084714005892,0.03164167764448865
0.35451505016722407,-1.8750734797272057,-0.07176868215540569,-0.00028133414346369427,0.00007556187208343992,0.03557722520263627,0.04175546450431723
0.3612040133779264,-1.8565880932534038,-0.04648669125352282,0.0002050536819118195,-0.00024950223337321656,-0.00016867160531249675,0.04837993677234703
0.36789297658862874,-1.8388731612561309,-0.023678920546344896,0.0006309514648275752,-0.0006247252286991849,-0.0344305493887216,0.055671907894676936
0.3745819397993311,-1.8215692335469056,-0.003565010866291126,0.0003371439148626094,-0.0005878799421312449,-0.01632616676120684,0.06818707754086949
0.38127090301003347,-1.8046732259771525,0.013326907391692759,0.000038508670760795734,-0.00047437660700319476,0.0008870194922660848,0.08303839402436748
0.3879598662207358,-1.7883621313301468,0.02315244652258394,-0.00014743585225201005,-0.00027175775424781543,-0.005040199440196627,0.09604171021676935
0.39464882943143814,-1.773024784416736,0.006825373419378104,-0.0025915309113103196,0.0019828712871353335,0.0040874084807568795,0.26911458064059135
0.4013377926421405,-1.757024714810429,-0.01785776014640743,-0.0042830947010090515,0.003520742877211828,1.1890374966880095,-2.994093927575496
0.4080267558528428,-1.7404241814677142,-0.045000552651266644,-0.004543993082224383,0.0037038686325403594,2.078858880659855,-5.750436956866027
0.41471571906354515,-1.7244485582221996,-0.07002482588115039,-0.004233403898776954,0.0033347079023438703,-0.17878220185693772,0.023665369300621224
0.4214046822742475,-1.7102078668313636,-0.0867159791854229,-0.004314155968550719,0.0036529806811286284,-0.14232245092113288,0.006125038876054326
0.4280936454849498,-1.6951875491380382,-0.09542091582713712,-0.004085825123303898,0.0038770995842145276,-0.12043542781842767,-0.0002146785726296789
0.43478260869565216,-1.6795689118467123,-0.09821313812864135,-0.003671121444368248,0.004028721357999011,-0.10460254947221166,0.0013684574251335664
0.4414715719063545,-1.6636342900542458,-0.0982095566641942,-0.003238937792641971,0.004142972166467122,-0.0841090828713958,0.005878857204132351
0.44816053511705684,-1.647472614487649,-0.09589804423829311,-0.0027832722461857444,0.004249064097653358,-0.06583646187983615,0.009975358447717332
0.45484949832775917,-1.6311660615603625,-0.09218384786613563,-0.002324568552620044,0.0043636273177029405,-0.0505734239825587,0.01297258148327257
0.46153846153846156,-1.614797622123841,-0.08714432756263038,-0.0018768459460734087,0.004493073439697597,-0.03799700212666132,0.014966081890979777
0.4682274247491639,-1.5983555643557288,-0.0808817291030237,-0.0014484634865848808,0.004643874214743413,-0.027818778130882352,0.016071693164920384
0.47491638795986624,-1.5818170400846252,-0.07354234006243804,-0.0010456580958366024,0.004822324414388157,-0.01968613029715104,0.016454128420230897
0.4816053511705686,-1.565295292911575,-0.06515937181985124,-0.0006785552538774058,0.005036624303809618,-0.013417116632169376,0.016263420847248366
0.4882943143812709,-1.5486580671065662,-0.05520645464684639,-0.00034571907775105855,0.005297717399231476,-0.008528149857641377,0.015713840235893516
0.49498327759197325,-1.5320720792365785,-0.04482427656268851,-0.00004406416174254448,0.005602963701874966,-0.0045755263459273995,0.014986186557053175
0.5016722408026756,-1.5154871614168677,-0.03367361468508452,0.00022810855837195347,0.0059586063888802535,-0.0013568500517490366,0.014147633102920202
0.5083612040133779,-1.4988835498800648,-0.0214661144619104,0.0004721615539331471,0.006371832805944887,0.0012911826009998372,0.013252698340971066
0.5150501672240803,-1.4823839585077656,-0.008999911395179739,0.0006962954074437462,0.006843399593495213,0.0037898600180006695,0.012820099827602231
0.5217391304347826,-1.4674840170932064,-0.011738297507642336,0.0010421938493456909,0.007285718095005068,0.012042705361410663,0.022554607706354972
0.5284280936454849,-1.4527776481226826,-0.01566504189654404,0.0012626866619535166,0.007697619483471487,0.019142438816519877,0.028943062928154163
0.5351170568561873,-1.4382094316198697,-0.020305751126677107,0.0013966131241118663,0.00812394060243837,0.025160223354389985,0.032874983509775434
0.5418060200668896,-1.4237552251773908,-0.025347434270949754,0.0014632192020083087,0.008612847092504376,0.02992180979065507,0.034683609061923346
0.5484949832775919,-1.4096050592810963,-0.031467152975967305,0.0014582842382314578,0.009251884329754746,0.03334263872050954,0.03504541822416194
0.5551839464882943,-1.3955747729466872,-0.038013325107230614,0.0014032621325650943,0.010016927124020107,0.036153460696456204,0.03490105145508421
0.5618729096989966,-1.3816520078354382,-0.04491872268922022,0.0012976754425915045,0.010911308609968246,0.038426935933533655,0.03435451731714512
0.568561872909699,-1.3680080376922263,-0.05219833285735966,0.0010734326859493156,0.012081779492022127,0.04007770627659394,0.03355889919040626
0.5752508361204013,-1.3545226977746199,-0.06058358961343989,0.0007473371704512879,0.013453598591235114,0.04154647991213074,0.03284996757721257
0.5819397993311036,-1.3411767103207062,-0.06982765047560228,0.0003273629312411044,0.01500646164414415,0.04286919006808172,0.03224051602015154
0.5886287625418061,-1.3281042949343291,-0.07873100809151264,-0.000356260403776368,0.016989788959663143,0.0441540946469202,0.03224670192659537
0.5953177257525084,-1.315191945720296,-0.08805498828669714,-0.0012560831461024538,0.019246862463680965,0.04558001377199773,0.032996885837590556
0.6020066889632107,-1.3024370288695049,-0.09779266992621807,-0.0023685478422261026,0.02177317779907874,0.04714462711922614,0.0344788256367203
0.6086956521739131,-1.2900048310277747,-0.10731196145581422,-0.004110734043092814,0.024816926313448364,0.0493767523309013,0.03892053458023464
0.6153846153846154,-1.2777111508756758,-0.11612665266597877,-0.006265063625061504,0.027988885041065434,0.052092625350407866,0.04582491032963542
0.6220735785953178,-1.2656826180423217,-0.12330663221033356,-0.00927471888707559,0.03136230845849266,0.055826816215909784,0.05800144093965294
0.6287625418060201,-1.25391035226193,-0.12744916770527656,-0.014566886680557353,0.03435912485851941,0.06142322183664756,0.0847000425633366
0.6354515050167224,-1.242296364424683,-0.12971568991251264,-0.021268800223667082,0.03712333787313607,0.06816978514541353,0.12036789522291594
0.6421404682274248,-1.2310800427079962,-0.12116873300082366,-0.004145237474653441,0.01873642293029657,0.059459070513105006,0.07490941574621136
0.6488294314381271,-1.2199554907782972,-0.10971400379753789,0.014742660897268356,-0.0009684214099143988,0.049271670763577455,0.022496814864889404
0.6555183946488294,-1.2093114724299812,-0.07997521256233175,0.015176498158389484,-0.0011481103841073299,0.04685553534146622,0.02094462447434242
0.6622073578595318,-1.1987771894964527,-0.04503442874978393,0.015547089026998074,-0.0013611212655252642,0.04418592798889847,0.01941072038319127
0.6688963210702341,-1.188751103796,0.013997376538383323,0.0156247786317887,-0.001728449703270121,0.04034246319049503,0.01796150223207265
0.6755852842809364,-1.1788617350573904,0.07858936410629265,0.01561615200016477,-0.0021598458416335646,0.036175614759131315,0.01657330147990157
0.6822742474916388,-1.1696637827858365,0.1713007710659195,0.01517099967029194,-0.002915250520098433,0.03037332354151968,0.015493683026812444
0.6889632107023411,-1.1604658305142825,0.26401217802554633,0.014725847340419108,-0.0036706551985633013,0.02457103232390805,0.014414064573723318
0.6956521739130435,-1.1523976744679958,0.38839446430695557,0.014246937498117559,-0.005600733874880121,0.015195127759759335,0.014588884576385016
0.7023411371237458,-1.1443627792361666,0.5137091304434913,0.013767033846195887,-0.007565394551930491,0.005714017240939482,0.014800634818139688
0.7090301003344481,-1.13579886582427,0.6336087008776029,0.0131435259988739,-0.01078768349991384,0.005363494017814141,0.016740224916717887
0.7157190635451505,-1.1266143709173868,0.7471559221616817,0.012351558711733707,-0.015485273036646156,0.015723894780970447,0.020706712165234224
0.7224080267558528,-1.11732228560898,0.850275789807822,0.014639908627319585,-0.02213653815446472,0.025572522831138117,0.03279433425882401
0.7290969899665551,-1.1077291267024019,0.9242164664228061,0.025548006871750933,-0.03425483498261197,0.03398904123245907,0.067607582936325
0.7357859531772575,-1.0980601383165076,0.9913093510630796,0.03413500749462082,-0.044037496769205826,0.04035852076910563,0.0965658955012279
0.7424749163879598,-1.087992920723799,1.0224400902275386,0.03053243655363069,-0.041554241680265024,0.03597768696125574,0.09477618519825562
0.7491638795986622,-1.0778498983164961,1.048273868598274,0.026575347151768496,-0.03843828731482772,0.0316167750683874,0.09088140844084547
0.7558528428093646,-1.0672957731478496,1.045381302597865,0.020695642161547248,-0.03189109416779532,0.027363903203108112,0.07557048830439042
0.7625418060200669,-1.0566733607580692,1.0348290539573932,0.015212203799588557,-0.02574439912952923,0.023754470939474442,0.06114667654095758
0.7692307692307693,-1.0458392325094923,1.0005289318303079,0.010957339805153071,-0.020839397626823193,0.02213994146414089,0.049473231653203546
0.7759197324414716,-1.035052333456458,0.9521216018777408,0.0071150562187417415,-0.016666949647136907,0.02110202388511952,0.03955785198947014
0.782608695652174,-1.0243420090778805,0.8808416645408909,0.003941706542139136,-0.013682221401028136,0.02099899134363427,0.03249289716688436
0.7892976588628763,-1.0140507362316125,0.7844216526756026,0.000854412517377022,-0.011320554030873446,0.020912939224461694,0.02696051397010377
0.7959866220735786,-1.0041826253405803,0.6626149705037079,-0.00214598174665354,-0.009588059061178402,0.020844034086394174,0.022975735198344505
0.802675585284281,-0.9935025397268381,0.5514470965459755,-0.0057303131168581056,-0.007923129672590313,0.01966217970847856,0.019387343497551203
0.8093645484949833,-0.9818413895059424,0.4531335121483627,-0.010020183725721634,-0.006339836076880826,0.017135609690734233,0.016277884595010738
0.8160535117056856,-0.969355861932333,0.365684319440016,-0.014521688911755183,-0.004791697206367053,0.011546136798734199,0.013917549393808478
0.822742474916388,-0.9564164505795149,0.2840239036401498,-0.018830522997594794,-0.0033075089008241885,0.004547625278213667,0.012038676603099745
0.8294314381270903,-0.9426766406786042,0.21178733945578468,-0.02154251272037489,-0.00211740381599076,-0.003808120211828586,0.01128941540591831
0.8361204013377926,-0.928353438736166,0.14580341718660084,-0.022289089421968052,-0.0013125749255260806,-0.010509640323338246,0.011191813355535296
0.842809364548495,-0.9135072843818557,0.08453376705792952,-0.021452740723249847,-0.0008328921604474742,-0.015355150689226485,0.011492762836036879
0.8494983277591973,-0.8980764088708916,0.02741197071536343,-0.019072095676163144,-0.0006912640640216803,-0.01765478265308005,0.012005259704091302
0.8561872909698997,-0.8818463985247179,-0.025735136633978663,-0.015673585443772266,-0.0008449472111970374,-0.017380507329756042,0.01248725132364927
0.862876254180602,-0.8623330323764293,0.0353518724858903,-0.01148252080127742,-0.0012189883440723282,-0.015899983178696016,0.013114629437226317
0.8695652173913043,-0.8409014718886517,0.15652895110843562,-0.006823868670971648,-0.0019603021949075768,-0.013725001868508186,0.014424736957928988
