# n,energy,berry,bcd_x,bcd_y,qmd_x,qmd_y
0.00000007407407407407407,-3.035521859469654,-0.000000001167691100842014,0,0,0,0
0.006666666666666667,-2.987604007294842,-0.00010453804469326989,0.00000000000000000021777465265220803,-0.00000000000000000023939514642420853,0.00000000000000000014076007146989784,-0.00000000000000000011629284689109331
0.013333333333333334,-2.9544573767185205,-0.00014295849405312515,0.000000000000000000192547926927021,-0.00000000000000000026705745237680766,-0.000000000000000000009156343439993745,-0.0000000000000000001216460875465158
0.02,-2.930769510265215,-0.00013608092550484197,0.00000000000000000020534278343225065,-0.0000000000000000009873372845446368,0.0000000000000000012037995779803349,0.00000000000000000015969052323575123
0.02666666666666667,-2.9072403476634916,-0.00012066868853630472,0.00000000000000000019861200266292143,-0.00000000000000000075407973154791265,0.0000000000000000013693287561817385,-0.0000000000000000001779192402948741
0.03333333333333333,-2.8838831376116856,-0.00009597951412276378,0.0000000000000000003041509268531692,-0.0000000000000000009077510901403553,0.0000000000000000008395557603663489,-0.0000000000000000006027178027629099
0.04,-2.8606921179268054,-0.00006127947399198082,0.0000000000000000005661022776491563,-0.0000000000000000011402872763468708,0.0000000000000000015464179632161811,-0.0000000000000000014610299977127948
0.04666666666666667,-2.8376731079920354,-0.00001573523609847058,0.0000000000000000011127984829244416,-0.0000000000000000011578928397140457,0.00000000000000000012475178013914486,-0.0000000000000000005540363880599493
0.05333333333333334,-2.814806167633482,0.00004276612952974969,-0.0000000000000000012085261139292656,-0.0000000000000000044443407781111254,-0.000000000000000000003341382285401282,-0.0000000000000000013563638520224433
0.06,-2.7921464020558333,0.00011411591511102736,0.0000000000000000006715054209458579,-0.000000000000000002098673160922544,0.00000000000000000798239017277629,-0.000000000000000002242086143876592
0.06666666666666667,-2.769632730616843,0.0001991852370197792,0.0000000000000000009154289833752509,0.000000000000000002874411612384459,0.000000000000000009405652973893276,-0.000000000000000003645677271285585
0.07333333333333333,-2.747274251155185,0.000298668829916338,0.0000000000000000002958894264746233,0.0000000000000000003302616766637958,0.0000000000000000005876640534401433,-0.000000000000000003618666638118044
0.08,-2.725092521978297,0.0004138785818870745,0.00000000000000000163871886726668,-0.000000000000000005522141427371869,-0.0000000000000000050967091429299205,-0.0000000000000000047760291568598845
0.08666666666666667,-2.703078777321843,0.0005464503236859175,-0.0000392579639592915,0.00002363966002552258,0.000016615142979382466,-0.00003602174959436975
0.09333333333333334,-2.6811844053911784,0.0006968316416688592,-0.000025505734890997533,0.000017532696037084642,0.000015820260416234656,-0.000022824970637378737
0.1,-2.659489580804267,0.0008670574726518793,-0.00001737155717898924,0.000014654384504225006,0.00001613793746031446,-0.000015236486329933352
0.10666666666666667,-2.637990837388758,0.0010594119854999693,-0.000010742222421231869,0.00001290615326197219,0.00001887800609973586,-0.000014972226588649516
0.11333333333333333,-2.616619431465351,0.0012743717828795549,0.000016968741712967023,0.00000031633762406962563,0.000029757318700762395,-0.000036781263778626504
0.12,-2.595420098456372,0.0015126295153326888,0.000013078951287108825,0.0000061433065196756305,0.00002600004224041629,-0.00003062544435265881
0.12666666666666668,-2.574362794133167,0.0017755035537873757,0.00001374267462812079,0.000009818078610784284,0.000024780678375155773,-0.000028517452933195474
0.13333333333333333,-2.553474775859202,0.0020662925921005157,0.00001589489072125246,0.000013197974952545296,0.000023986858360353417,-0.0000276055640998558
0.14,-2.532750368506637,0.0023854358576833436,0.000018956114180479124,0.000016690171561151066,0.000022878300669796843,-0.00002721531232951256
0.14666666666666667,-2.512173813515578,0.002732267933112851,0.00002277677058344539,0.000020460431473294943,0.000020855663037903535,-0.000027045729723694874
0.15333333333333332,-2.4917727101992133,0.0031085112007554166,0.0000273477593156064,0.000024601528843119277,0.000017226865616333512,-0.00002692067569882037
0.16,-2.4715199122810834,0.0035173510179283083,0.000032730267982005015,0.00002918896180556047,0.000011063292792882674,-0.000026715450983960487
0.16666666666666666,-2.4514173974962574,0.00395520985236334,0.00003901217642602228,0.00003429017357710876,0.0000010818635637154394,-0.000026331639586857677
0.17333333333333334,-2.4314838677357793,0.004425650072294947,0.00004630660706747683,0.000039968300229554434,-0.000014510680004753129,-0.000025713843727616225
0.18,-2.411725934385178,0.004922367040422819,0.00005475232276454074,0.0000462956252704025,-0.00003823727108220434,-0.000024870180909897527
0.18666666666666668,-2.3921169625735517,0.005442272691337377,0.00006452492028772636,0.0000533640003191935,-0.00007371065872861073,-0.00002391827752870704
0.19333333333333333,-2.3726548695036027,0.0059784544798698784,0.0000758187960892834,0.00006126759715998976,-0.00012604407922605642,-0.000023172050619506282
0.2,-2.3533677148166814,0.0065110757262701584,0.00008882212357197837,0.00007009440059891837,-0.00020233435734241722,-0.000023260994773139077
0.20666666666666667,-2.3342546943198235,0.00702049407238854,0.00010375025909533876,0.00007995862273974825,-0.0003126308767176042,-0.000025319115418616832
0.21333333333333335,-2.3153017266989893,0.00746969173870259,0.00012083393857041637,0.000090992588597648,-0.00047119158288875797,-0.00003128320495059231
0.22,-2.29652576551031,0.007781039070678623,0.00014026540638486658,0.000103318656902383,-0.0006977644087042058,-0.00004431770937507638
0.22666666666666666,-2.2779291402951425,0.007833087635413124,0.0001622116999401928,0.00011707976809966087,-0.0010199502886657106,-0.00006943363404204476
0.23333333333333334,-2.259508122174096,0.007407701803509113,0.00018676176152417014,0.00013241978951970227,-0.0014761088719961427,-0.00011437838914142467
0.24,-2.24131127194789,0.006041679038707253,0.00021380583358824549,0.00014942705034796215,-0.002116693200643048,-0.0001905287513166452
0.24666666666666667,-2.223341202370662,0.0028034930415228483,0.00024308588556865815,0.00016821071834912312,-0.0030097207241744995,-0.0003143171422332657
0.25333333333333335,-2.2056767211677655,-0.004849612451481987,0.00027399856691217764,0.00018885376375563158,-0.004260426629067915,-0.0005128564226375543
0.26,-2.188573669832369,-0.028967697770897798,0.00030491336910652483,0.0002111646944131236,-0.0060269133081250325,-0.0008315283275902026
0.26666666666666666,-2.1720363715165396,-0.09367633111596063,0.0003338809278849406,0.0002347195916742655,-0.008417934107252662,-0.0013089547091810782
0.2733333333333333,-2.1542315112243564,-0.14672060618865435,0.0003614092005574502,0.0002620576884252076,-0.012000134243388258,-0.00209034716951543
0.28,-2.1348447745741894,-0.1752322270312767,0.0003819261000111153,0.00029372419260829,-0.01759254231246355,-0.0034191407430384183
0.2866666666666667,-2.1163209194928085,-0.14426037440170528,0.0003842792386166244,0.0003247295801734971,-0.02528450588167997,-0.00539487910835343
0.29333333333333333,-2.099591709879058,-0.0550469544161668,0.00036344448282084807,0.00035164041560848547,-0.03486383938291109,-0.008015510380243217
0.3,-2.0834363330584393,0.05187982605605486,0.0003150257232608784,0.00037457195367508565,-0.04703730210665666,-0.011515350594914382
0.30666666666666664,-2.065340097979764,0.1282938046385152,0.00021192973571006996,0.00039195543299727853,-0.06529976682839109,-0.017037798763638812
0.31333333333333335,-2.0461742482603573,0.18618861029582653,0.000028930450205504017,0.00039147846658276397,-0.0910952789365373,-0.025228958564828322
0.32,-2.0285139737627156,0.1770429865167372,-0.00021940990297950738,0.00036007131685144553,-0.12132128306665871,-0.03522659909921009
0.32666666666666666,-2.0120243544393017,0.1568449585053605,0.000932922003793887,-0.0006287217690303072,-0.1675524015143241,-0.04911100955630831
0.3333333333333333,-1.995806133212367,0.14450852421392477,0.0007400842709548841,-0.0008861353112285847,-0.2181197022307269,-0.06577765537795446
0.34,-1.9797622756640065,0.13879340792279332,0.00004751023829715562,-0.0008745149953628469,-0.27316100657798575,-0.08463796317949095
0.3466666666666667,-1.9638789645889052,0.13720777003324167,-0.0004937974717206885,-0.000943311471499076,-0.33175177002991724,-0.10474926444488844
0.35333333333333333,-1.948136736674049,0.13880157160427753,-0.000956719975391753,-0.0010131113192243092,-0.3903114507001297,-0.12476851880801032
0.36,-1.93264905207171,0.14318225178681665,-0.0012598810912082831,-0.001041929734757514,-0.43842306414211557,-0.140346425573756
0.36666666666666664,-1.9173206753885805,0.1493456920540941,-0.0025538694724341147,-0.00040072303825848933,-0.4642139899986312,-0.1417174159351209
0.37333333333333335,-1.9021703209138703,0.1572548558823742,-0.003264345170675991,0.000059552369414571675,-0.46619456309604035,-0.1311059856356998
0.38,-1.8872071904238754,0.1668902874871842,-0.002531804839283035,-0.00010790983837258753,-0.44259098890404325,-0.10925598849145039
0.38666666666666666,-1.872486058880469,0.1790888207182741,-0.0016759058615734299,0.00003922036803792427,-0.3728076586671696,-0.06269660059677928
0.3933333333333333,-1.8579765895903633,0.19371076288563718,-0.0005147674814574909,0.0004911844996220407,-0.25002796193416293,0.01300066979622655
0.4,-1.8436281059372797,0.20945035298296905,0.0005912664422235425,0.000778703512247836,-0.06869128530771551,0.11744273078546971
0.4066666666666667,-1.8294269776600702,0.22568409461308153,0.0014374679736880824,0.0006268305608589952,0.17954675849781587,0.252994471704222
0.41333333333333333,-1.8152963026573052,0.22329625399693565,0.002106501920366557,0.0007093698793260408,0.29393340719912475,0.3245577469656596
0.42,-1.8014640478637416,0.22238940042478975,0.002695345141182693,0.0008868769263251713,0.4149606757350385,0.398805040241171
0.4266666666666667,-1.787917692896808,0.22347749025944358,0.0031894452683105226,0.0011390369032317608,0.5447244243152632,0.4776855090288451
0.43333333333333335,-1.7748600356093298,0.22944562354907005,0.003426344674015663,0.0014555660595340898,0.6916923190152519,0.5699633769671719
0.44,-1.762171371857525,0.2435232954960257,0.0031028365887005244,0.0014319229460547933,0.787421983884687,0.6893563017550062
0.44666666666666666,-1.7497283482908281,0.26423103883143023,0.002510271204910274,0.0010933481966545716,0.8186584196695845,0.6728908259771926
0.4533333333333333,-1.73785187320376,0.33333979302426076,0.004093375383766561,-0.0023502990787078967,-0.11571491156439406,-3.7947320463981242
0.46,-1.72622601367017,0.39808762578373125,0.003957617704243709,-0.004630993736290305,-0.8425698500560569,-5.407491597237404
0.4666666666666667,-1.715030497427803,0.45534712329683924,0.0008703246589922527,-0.0049147299045608425,-1.2130855794179594,-2.1180363384578778
0.47333333333333333,-1.7042129278226232,0.5089471916101548,-0.0008610975598059089,-0.005209880738016622,-1.2995446932121508,-0.7679489472974017
0.48,-1.6936455777362465,0.560124535328594,-0.001694865685744426,-0.0055125886489773126,-1.1979441640127644,-0.7018197842835863
0.4866666666666667,-1.683978706937062,0.6294904280400901,-0.0024482284584382468,-0.0056044968898019375,-1.1265246165942195,-0.6644025257876222
0.49333333333333335,-1.6746443833975733,0.7055733571248944,-0.0031718975110579875,-0.005618556751829221,-1.0662509144259738,-0.6375885818862971
0.5,-1.6668763007187946,0.8193294850950877,-0.003836854182632828,-0.005559358451406876,-1.0244363513084465,-0.6208681295533697
0.5066666666666667,-1.660102309885349,0.9569967628373515,-0.0044645461520274755,-0.00545366325276018,-0.9943377892623426,-0.6105540083989894
0.5133333333333333,-1.6533283190519035,1.0946640405796129,-0.005092238121422113,-0.005347968054113486,-0.9642392272162393,-0.6002398872446094
0.52,-1.64406929509483,1.1731104990568395,-0.006174527128687733,-0.005060034147522292,-0.9259352049915264,-0.5904458296079462
0.5266666666666666,-1.6337064056907227,1.2252507423330832,-0.007458750652503038,-0.004691148799721185,-0.8839862720080564,-0.5808827870599805
0.5333333333333333,-1.6226795121921525,1.268277104434689,-0.0088692478353871,-0.003689035571872414,-0.7684686681356779,-0.5164427433898017
0.54,-1.6114604490318523,1.3084489864507443,-0.010313555504846219,-0.002494316557117076,-0.6337532142323752,-0.43778621848699667
0.5466666666666666,-1.5997820710554886,1.331691882867811,-0.011711224585334962,-0.00040376077055226736,-0.5507383188610434,-0.40277842606194336
0.5533333333333333,-1.588045133128159,1.3500905155376601,-0.013237488042508874,0.001723841109053641,-0.4735246661078196,-0.3715962313747982
0.56,-1.5761874899957782,1.3585040331367126,-0.015028813378156248,0.003927803302887047,-0.4082686767102901,-0.34829945243313826
0.5666666666666667,-1.5643212481720534,1.3574104356805088,-0.016941481091188718,0.006236162772518299,-0.3442882137571453,-0.32490108258536254
0.5733333333333334,-1.552450555629498,1.351395915457946,-0.01891695612946427,0.00859855871149216,-0.2809679686600766,-0.30145012885700273
0.58,-1.5407479640576927,1.3285542687611558,-0.02073898755552921,0.011084334849669758,-0.21224575284876146,-0.27208776770797827
0.5866666666666667,-1.5291506218803281,1.2995009866445844,-0.02238957869962607,0.013544333597855233,-0.1414122154909438,-0.24031445287771763
0.5933333333333334,-1.5177926374413855,1.2564326623823436,-0.023648338744250326,0.015943054396749763,-0.06580987182417077,-0.2030914077395766
0.6,-1.506859730143574,1.1968293971492712,-0.02441683796927779,0.018079551483386865,0.00994747565683183,-0.1635141090647183
0.6066666666666667,-1.496258200458097,1.1243359792148877,-0.024803144307181006,0.020011626691599126,0.08582565954349601,-0.12210150371175128
0.6133333333333333,-1.4867668746604559,1.014682122027628,-0.02458155037068699,0.021380813377532757,0.15318892155489439,-0.08354047203636002
0.62,-1.4777590915839875,0.8888432558404771,-0.024095189073796597,0.02250483730483976,0.21684355982676584,-0.04622142636983442
0.6266666666666667,-1.4694508557071653,0.7372206405396964,-0.0233141747757813,0.02326333660979214,0.27255445338408385,-0.012839076963207397
0.6333333333333333,-1.4618387244222368,0.5599411629667077,-0.022239957521336423,0.0236581101101098,0.32036069493875013,0.016625949431058867
0.64,-1.4542265931373082,0.38266168539371614,-0.021165740266891532,0.024052883610427463,0.3681669364934172,0.046090975825325606
0.6466666666666666,-1.441666066062082,0.3353715649009088,-0.018658399758067958,0.023940748304379905,0.43180339133118767,0.08658800057450375
0.6533333333333333,-1.4281190035977183,0.31131359019686067,-0.015983104735052118,0.023716282270207546,0.4908548826438201,0.12437531630542893
0.66,-1.413860024532849,0.3017876279267244,-0.013226434433820222,0.023369962810427865,0.5400633990409306,0.1561215911770429
0.6666666666666666,-1.3987103411518667,0.3121694963128777,0.0005773470394684899,0.017010014371360613,0.5647819318255645,0.18347284556870205
0.6733333333333333,-1.3830720219699806,0.34229023655295787,0.00834665012528939,0.013624043565726628,0.5666127666686896,0.19182993568127293
0.68,-1.3669160052528635,0.3985434947935695,0.013714516589052402,0.011691537289277486,0.5463055631353069,0.18648501799743944
0.6866666666666666,-1.3502387204986406,0.4950525059124165,0.019188499514553738,0.01011656668037747,0.505002249276543,0.1718289792344194
0.6933333333333334,-1.3330774569002528,0.6635903219126554,0.024222030962458552,0.008976416153359302,0.44468809058845266,0.149120340889605
0.7,-1.3154287405177068,0.9872838153525263,0.028391597793190844,0.008055562295746162,0.37191625621267366,0.12132984149020049
0.7066666666666667,-1.2951085868364351,0.5538047704221652,0.03505088570203212,0.005139820551257852,0.2890808858610762,0.08705069504058258
0.7133333333333334,-1.275263894481654,-0.021170802079010717,0.022274133936539035,0.011681174521112824,0.209647938748206,0.06792290188526749
0.72,-1.257018112497976,-0.9326429393091364,0.02141768817066556,0.009595857024627702,0.1602190361524454,0.04982956470961868
0.7266666666666667,-1.2381542417382039,-1.62598093693775,0.019669045074537827,0.007833718472866756,0.11663026861940315,0.03462067883516076
0.7333333333333333,-1.2158326590681436,-1.567655926074909,0.017028233883339263,0.006193798828782709,0.07628327578457736,0.021331390774227677
0.74,-1.1939192633673819,-1.2710518518813987,0.014288449269197548,0.005016009251868081,0.049109919077921116,0.013085466937617918
0.7466666666666667,-1.1736458743744698,-0.8208655917222792,0.01192324765835212,0.004187096805748033,0.031813544715812964,0.00824822479001012
0.7533333333333333,-1.1541164046958654,-0.4285003321121747,0.009911826229099549,0.0035714603444258483,0.02052404261840874,0.005368268265746698
0.76,-1.1331001785021089,-0.3233923209282126,0.00808821877785728,0.0030635453606114665,0.012612097763350306,0.003566976665782375
0.7666666666666667,-1.111439543353646,-0.27976858766729856,0.006555571863486106,0.002661626337603882,0.007441623942408055,0.0025475658186630305
0.7733333333333333,-1.0892645727765495,-0.2597810747698743,0.005304444336433463,0.002344440649130379,0.004148969174242581,0.0020118129752695075
0.78,-1.0665701045638414,-0.2508848443228243,0.004299895169135824,0.0020932789792865118,0.002086521313672822,0.0017594078761702424
0.7866666666666666,-1.0434192577745394,-0.247699127379247,0.0035057643374036785,0.0018943452674301641,0.0008171383513782557,0.0016674178724085777
0.7933333333333333,-1.0198054646489532,-0.2476011564907135,0.002884215679847793,0.0017362786909635728,0.00004554427846005732,0.0016630062330945544
0.8,-0.995675828265328,-0.24923466970814248,0.0024134555186723183,0.0016125558588765332,-0.00040054588518201133,0.0017082492339563892
0.8066666666666666,-0.9710994158136435,-0.2520448283224949,0.0020561274256300876,0.0015137337756831338,-0.0006679686248645396,0.001778797123976762
0.8133333333333334,-0.9460578085607892,-0.2552978116582129,0.0017828758083035612,0.001432167523581008,-0.0008388476037793984,0.0018651794369517066
0.82,-0.9205809227794948,-0.25911562073165534,0.0015764796134718098,0.001363003110311166,-0.0009557171533309324,0.00196529617689698
0.8266666666666667,-0.8946144611983933,-0.26284883322186836,0.001429304409434255,0.0013021610830690085,-0.0010440442327388643,0.0020826673896252377
0.8333333333333334,-0.8681667499609904,-0.26696587033122293,0.001322213854138095,0.0012438388881553088,-0.0011256380616924161,0.002218976621650553
0.84,-0.8412588014100358,-0.27094460844410717,0.0012453629381006114,0.001183519778710677,-0.001210728116732989,0.0023776694796757646
0.8466666666666667,-0.8137935854001992,-0.27466481516854563,0.0011962098495079524,0.0011154132279528918,-0.001309281667925947,0.0025701388911143577
0.8533333333333334,-0.7858597937357982,-0.278499971570827,0.001165317385667663,0.001034975199873165,-0.0014255884076795745,0.0027990320633401876
0.86,-0.7574697819175384,-0.2822002524309846,0.0011503325290104101,0.0009352807640988707,-0.0015673144271190955,0.0030772560705352465
0.8666666666666667,-0.7285052951134435,-0.2857281073425122,0.001150458535115038,0.0008081896419518543,-0.0017440563164634025,0.0034231549420529984
0.8733333333333333,-0.6990734939615422,-0.2892716458003645,0.0011666111889217803,0.0006462401406503059,-0.0019658090629715488,0.0038571640372817256
0.88,-0.6690655731957772,-0.2924696305837774,0.0012089012687010767,0.00043349109979436015,-0.0022593676845669036,0.004434372042312552
0.8866666666666667,-0.6385542932488324,-0.29539499387341506,0.0012996262526603472,0.0001533714433313569,-0.0026633690695136592,0.005236373718368922
0.8933333333333333,-0.6074223855310167,-0.29823195079094983,0.0015056324964147108,-0.00023324158752514583,-0.003284291108077013,0.006490251551632461
0.9,-0.5757462637693574,-0.3008638104825695,0.0021243753282538117,-0.000885456815613549,-0.004500797635937496,0.009023909187921831
