# n,energy,berry,bcd_x,bcd_y,qmd_x,qmd_y
0.00000007407407407407407,-3.023162976349198,0.0000000006289757757619448,0,0,0,0
0.006666666666666667,-2.999137743702452,0.00006454340017304532,0.00011752860199402106,-0.0000000000000000005880841731307055,0.0000000000000000002284451237925762,0.000016504609682640457
0.013333333333333334,-2.9755396808228167,0.00013295514626097333,0.00032698890005622113,-0.0000000000000000009026312539116356,-0.000000000000000003017863335281111,0.00004238150232559781
0.02,-2.952114047042402,0.00020522378989656757,0.0005991951555387738,-0.000000000000000001715796962794694,-0.0000000000000000013717841203722324,0.00007505434879946443
0.02666666666666667,-2.928870403890716,0.0002814792735561087,0.0009202815911865858,-0.0000000000000000032724745903841055,-0.0000000000000000007861042975803456,0.00011257770561911764
0.03333333333333333,-2.90579880332767,0.00036166354075865234,0.0012797059501134748,-0.0000000000000000012101647152974705,-0.0000000000000000013889440804613152,0.00015318589220465154
0.04,-2.8829081887683667,0.00044632210868299584,0.001669498273352077,-0.000000000000000002585677114455235,-0.000000000000000010380860419475478,0.0001949437469607393
0.04666666666666667,-2.8602197191030734,0.0005354182795941441,0.002076253434762055,-0.000000000000000002226028393385721,0.000000000000000003700110253365101,0.00023535030596589103
0.05333333333333334,-2.837698767333968,0.0006287583258520057,0.00248958508909658,-0.000000000000000005599389819563617,0.00000000000000001885422723666626,0.0002720170722237456
0.06,-2.815345246342882,0.0007262557936869284,0.0028988494955442894,-0.000000000000000005540549640769023,-0.000000000000000006309241940728703,0.00030215099786011707
0.06666666666666667,-2.7931792008043383,0.0008283288649487367,0.003292276158328804,-0.000000000000000002493803364294741,-0.000000000000000002449604075245452,0.00032246910508507273
0.07333333333333333,-2.771190063897171,0.0009349022006205682,0.0036577136393345835,-0.000000000000000010353568837171761,0.000000000000000022390162446572334,0.0003291434294114995
0.08,-2.749364472814648,0.0010464675212172633,0.0039818343098272455,-0.00000000000000001592094381221916,0.00000000000000003148381758191418,0.0003175889546772626
0.08666666666666667,-2.7277367847456335,0.0011619971948737561,0.004249139589382831,-0.000000000000000008813998668793287,0.00000000000000008105082143235789,0.0002823108439323723
0.09333333333333334,-2.7062922368057944,0.001283782400965921,0.004431074667009357,-0.0000012073629645771632,0.00004881480368792356,0.0001873647734614054
0.1,-2.6850228786129615,0.0014106685903378757,0.004476020147843391,-0.00001223490710674153,0.0005202271048133164,-0.000175166053223662
0.10666666666666667,-2.6639394509562577,0.001543539540689721,0.004483762576994395,-0.000004589495452544366,0.0003758999276621365,-0.0002563969628025063
0.11333333333333333,-2.643031729468895,0.0016819448539456784,0.004330725797773976,0.0000002409386311647286,0.0003586986219471298,-0.00047373457108011594
0.12,-2.6223060052009366,0.0018276313609095437,0.00400206152151686,0.000005168119503897612,0.00035737684401002736,-0.0007800592959982357
0.12666666666666668,-2.6017676943446024,0.001980258448304713,0.0034649608200381086,0.000010808791338135076,0.0003551226081238675,-0.0011866727637191393
0.13333333333333333,-2.5814364312815057,0.0021405388381607014,0.0026793072856564105,0.000017452410212175366,0.00034401179650349155,-0.0017145256145268692
0.14,-2.561286004635104,0.002310863380062833,0.0015947828471561984,0.00002532355827719487,0.00031748582889025217,-0.0023936333396739843
0.14666666666666667,-2.5413264847666825,0.0024914436279081195,0.00015218243651135392,0.000034618237552433866,0.0002686236715556925,-0.003262268100131501
0.15333333333333332,-2.521564522563629,0.0026857827325229436,-0.0017196050068210172,0.0000455050096424724,0.00018959334017094694,-0.0043706532149624935
0.16,-2.50201203831584,0.0028953825275961687,-0.004104973735134736,0.00005815087079907276,0.00007137722288849476,-0.005784350131922907
0.16666666666666666,-2.4826741249028426,0.003123162143426742,-0.007105127772980101,0.00007272489528499083,-0.00009638261893179186,-0.007590654729200838
0.17333333333333334,-2.4635517562847986,0.0033740707120226243,-0.010840792114649585,0.00008938418047377722,-0.00032534895118097653,-0.009906775562497448
0.18,-2.44465973174523,0.003652752712764959,-0.015449841867286145,0.00010826112728750977,-0.0006280576574741134,-0.012888413808321753
0.18666666666666668,-2.4260004406866225,0.00396954066911755,-0.021091636905414716,0.00012947784522766463,-0.0010177973095166384,-0.01674755579676081
0.19333333333333333,-2.4075920079495776,0.004333742390558687,-0.02793411428295211,0.00015310714800578057,-0.0015074122147020203,-0.021766434991408717
0.2,-2.3894523566584907,0.004759776175089293,-0.03614263190578383,0.00017917554379461576,-0.002108581711616669,-0.028321179464768746
0.20666666666666667,-2.3716131528233615,0.005262300234164928,-0.0458453157906972,0.00020762850124641873,-0.00283015822330947,-0.03689584145857924
0.21333333333333335,-2.354084959469509,0.0058790979455727544,-0.05717620846946178,0.00023845959829601974,-0.0036838391114265806,-0.048262317752762296
0.22,-2.336960350314521,0.006663405844869502,-0.07009691453490015,0.0002715390090201509,-0.004683030000926099,-0.06388438217089946
0.22666666666666666,-2.3202715259260485,0.007667559282243464,-0.08371640660102611,0.00030612190006240657,-0.005805229083764932,-0.08478702570566005
0.23333333333333334,-2.304098110556323,0.008995015576965868,-0.09641840838984655,0.0003414864964375136,-0.0070320755165057995,-0.11247377204550262
0.24,-2.288582176390412,0.01079751671060286,-0.10543038234255275,0.0003766618778556213,-0.008332188349832554,-0.1482493062400484
0.24666666666666667,-2.273840394542901,0.01321108327349143,-0.10886714411915982,0.0004107921169071068,-0.009670083258594244,-0.19136744174623205
0.25333333333333335,-2.260961381588543,0.017307554639663256,-0.10105547252009103,0.0004405034737384202,-0.010950444565015722,-0.23429906852406868
0.26,-2.2478583744309804,0.020079040168005106,-0.10469700134959908,0.0004697871702210971,-0.012307464451088615,-0.24646482411655346
0.26666666666666666,-2.2343911196667765,0.02182219452187779,-0.12260465643110609,0.0004988083997716054,-0.013753116074946588,-0.23423700458903496
0.2733333333333333,-2.218198673058134,0.024986626229115065,-0.21197464312886397,0.0005293699212295201,-0.01557032627465135,-0.2469750904946651
0.28,-2.200442331766056,0.030321892465596183,-0.4377242204146351,0.0005556150828232719,-0.01759905223405832,-0.29826872065459387
0.2866666666666667,-2.1812977577052717,0.041504154141254176,-0.9605241790218688,0.0005724996492723779,-0.01977312511411302,-0.4607415231157474
0.29333333333333333,-2.160923222782154,0.08123356776908552,-0.1268227124355754,0.0005730376728731659,-0.02197669549708751,-1.1131440406314983
0.3,-2.1394839978073263,0.36206563899435623,-36.114212809165394,0.0005484263442011159,-0.02398017938757212,32.653009756843375
0.30666666666666664,-2.11543200018278,0.17807522050801475,-3.25143073331859,0.00047872473467758074,-0.025235168518681305,41.52311838580114
0.31333333333333335,-2.08966742120243,0.051076356374009,1.5366226466587585,0.0003291269297012981,-0.023233940199487744,37.0028995523473
0.32,-2.063394670578479,-0.10774268430643012,2.7539830213747263,0.00005999700303050383,-0.012719341361228521,30.1391844546684
0.32666666666666666,-2.0356550529440005,-0.2243540677504584,2.548967399929697,-0.0007450106992115395,0.023045431491572704,23.614461814958744
0.3333333333333333,-2.0062742027776967,-0.33152743731821804,2.310014143949605,-0.0019975959792921808,0.11786220858798407,17.52050085578147
0.34,-1.9828548738968308,-0.42966859970739557,2.108696373424578,0.0007472633041946276,0.21565644605141238,13.143487237728458
0.3466666666666667,-1.9658322288837269,-0.5002331732675241,1.896155562206614,0.006976077245397156,0.2557849798980825,10.342388600739058
0.35333333333333333,-1.9499760618310806,-0.5677438803139397,1.6202539663818993,0.018400264095989778,0.19463891447220594,8.061249744335196
0.36,-1.9338606323087206,-0.6113785620652794,1.3014923838628643,0.027118749328907444,0.20376721502809836,6.186225557511719
0.36666666666666664,-1.9168045512409941,-0.5974318432909701,0.9823463753516661,0.025611298548463616,0.38982878814110467,4.78620722135261
0.37333333333333335,-1.899289409259411,-0.5302986167586681,0.7104782045364125,0.022450059944393943,0.37084991675604045,3.7648212581849383
0.38,-1.8826046520382138,-0.46952836039172774,0.4945810337330802,0.01786876315668689,0.3155865003405838,2.9580046400665676
0.38666666666666666,-1.8666784048596636,-0.4150053209001079,0.3297482109371671,0.013926093514611389,0.25577349410147504,2.3147330344116974
0.3933333333333333,-1.8513790923163875,-0.36639352964745464,0.20352832496461556,0.01072545440274256,0.2022280845910103,1.785757607258825
0.4,-1.8366285505912827,-0.3231479309757464,0.10937450372523687,0.00816637644366196,0.15646806893695234,1.3455729184579028
0.4066666666666667,-1.822385344168453,-0.2849490651739864,0.04362945315306149,0.006160962059212748,0.1187755989547836,0.9790847068123603
0.41333333333333333,-1.808895603884395,-0.2537088880443301,0.013254001765110855,0.004804144575298624,0.0918937267414827,0.6908643711408442
0.42,-1.795829415104146,-0.2256172463534443,-0.0004898696237669983,0.003763108348192797,0.07037114422316937,0.43240699486547074
0.4266666666666667,-1.7831632685094017,-0.20043708758434098,0.001209354684890402,0.0030163412577616016,0.053851800264693384,0.2008987774590234
0.43333333333333335,-1.7713495601424265,-0.17738649519915686,0.025458758167828045,0.011204698706482009,0.3001328765871983,0.016691197194371232
0.44,-1.7599663409681359,-0.15196240951305826,0.050843989006553736,0.01785052655677641,0.4750772636101683,-0.1700157363403625
0.44666666666666666,-1.7496299954185963,-0.1195191192394518,0.07528370118526213,0.018555497482658296,0.40274885683724415,-0.37234320390690784
0.4533333333333333,-1.7394760966402594,-0.08357340640818918,0.08837919754575223,0.016551082497152585,0.30074214925518844,-0.4730179621335066
0.46,-1.7296490785949294,-0.04135257867408238,0.08114983116620318,0.009692396609085894,0.1455623180329354,-0.3915666573871601
0.4666666666666667,-1.7195727617234655,-0.005633136555354416,0.08774162852567892,0.00571014191087487,0.04705435887699057,-0.2753815968705714
0.47333333333333333,-1.709041620208747,0.01822507685632759,0.11954897127878975,0.006975692868469653,0.051939441697341916,-0.0958277338527109
0.48,-1.6985981107429782,0.03817336621795555,0.15173747702597812,0.00857692052480119,0.05973111685637045,0.082785554475205
0.4866666666666667,-1.6882480645970337,0.053951554727686694,0.18433250937214057,0.0105361617050386,0.07062279678082856,0.26039567975811223
0.49333333333333335,-1.6783035471494743,0.06096182549170763,0.21129220368161425,0.012809873918106156,0.08363639760804255,0.4358057117190197
0.5,-1.6686514582982341,0.061649510729161694,0.2341882299981358,0.015310352629031125,0.09818012528833392,0.609629246338347
0.5066666666666667,-1.6604059912942455,0.022975168909026678,0.2484847451645881,0.017691266174495818,0.112002118139921,0.7631800950857706
0.5133333333333333,-1.653356134066526,-0.04915636999343856,0.25547179075167553,0.019970550926831143,0.12521064603021875,0.8994994317057251
0.52,-1.6463062768388061,-0.12128790889590496,0.2624588363387631,0.022249835679166507,0.1384191739205167,1.0358187683256819
0.5266666666666666,-1.638027482508079,-0.14968257821640396,0.27273477345733466,0.025213941514450295,0.15564297822953568,1.1951078271447337
0.5333333333333333,-1.6293322170793672,-0.1632553806955291,0.28412527393632303,0.02841012447364913,0.17422750846563725,1.3621810316301888
0.54,-1.6195152468598635,-0.13379258304926778,0.2875074620242088,0.03202945300839908,0.19578518422603705,1.5495825455879166
0.5466666666666666,-1.6084922028065292,-0.05805726195430304,0.2822789923816995,0.03610375401965348,0.22053963069693358,1.7588413631265751
0.5533333333333333,-1.596884335063788,0.051622487503849214,0.26035413910161026,0.039865227072088005,0.24570218223432327,1.9628645459339484
0.56,-1.5850052243920691,0.1777776998504503,0.23000853985420489,0.04343075958940149,0.27090301085291885,2.1630439011120655
0.5666666666666667,-1.5727198171775674,0.34759671120698676,0.16949156227747975,0.045383838035254156,0.2922444360353641,2.3207495151596627
0.5733333333333334,-1.5604494143046648,0.5286042420018267,0.08200296976330956,0.04574904516023281,0.3126239124944171,2.471041198778197
0.58,-1.5481987348963593,0.7243192736604604,-0.04094027358093377,0.04402696817651977,0.33173889084375624,2.6115871435801763
0.5866666666666667,-1.53727247741216,0.8383300633137738,-0.3996432549944253,0.035008729458805926,0.33167901446462694,2.9629077440125338
0.5933333333333334,-1.5266283262960747,0.934937571918889,-0.8085638613532816,0.024436383510996848,0.327534828902675,3.3591240619712055
0.6,-1.516842360417759,1.0616446326041085,-1.1393265655738054,0.007930107468942547,0.36937050998579807,3.6566990843926903
0.6066666666666667,-1.507079212522872,1.1891519996222266,-1.468011157007781,-0.008733943739358718,0.41242873346303643,3.951651368333109
0.6133333333333333,-1.4996054606560028,1.3866100779519037,-1.6526208058122882,-0.022896996477999948,0.42878867968630696,4.055433337041534
0.62,-1.4922349928112997,1.587223919080695,-1.8307306444546265,-0.036947218942535526,0.4439441573834016,4.150590830633242
0.6266666666666667,-1.48418817372607,1.775166503438722,-1.9936654865521717,-0.05182341288455446,0.4546777330331736,4.200026301586732
0.6333333333333333,-1.4744420429360687,1.931272944599953,-2.1184736162208777,-0.06877483477825495,0.4543014156922546,4.134586595887197
0.64,-1.4637223142968223,2.06296182486372,-2.2130190041528524,-0.08534405554566465,0.4475288995109437,3.9928248277514746
0.6466666666666666,-1.4502870707402302,2.1265463528903963,-2.223156926836634,-0.10084725828450679,0.4229163959273819,3.6381890282806104
0.6533333333333333,-1.4360573511247925,2.1809809739668347,-2.0863649549445125,-0.10852324469985582,0.38398073620892087,3.077376529099061
0.66,-1.421278848598536,2.228528222837925,-1.8226355086869863,-0.11150914210150539,0.3411163269569744,2.3848079744335355
0.6666666666666666,-1.405945034016089,2.269993361984324,-1.4149337381727345,-0.10837647257486431,0.2940099126876535,1.5788706002580402
0.6733333333333333,-1.3899959031873972,2.3108359143552972,-0.8445386310209927,-0.08947271397561148,0.2233486825591945,0.7161273856147838
0.68,-1.3719477951765118,2.394177500353969,-0.14512569574656442,-0.07440169724093831,0.17744107467177261,-0.12102232048680961
0.6866666666666666,-1.3509545703391448,2.465229737556643,0.6976338920843016,-0.05076963520478207,0.1449470710667788,-0.9531531625929999
0.6933333333333334,-1.3279413546737981,2.5258294977261144,0.81277041930059,-0.04667867807772171,0.09324121874151149,-0.5059085137728794
0.7,-1.3000890442229578,2.4289036698797886,-0.3985538396740516,-0.032418890649327535,0.06328348862473275,0.31851226345208644
0.7066666666666667,-1.2693967206898529,2.060553677736999,-0.5655289200835372,-0.020771685651216745,0.04040506234560653,-0.1443300236870735
0.7133333333333334,-1.2416760969732643,1.7443053214286832,-0.7152493689019985,-0.013543695316455941,0.027217811397091365,-0.3954407192785282
0.72,-1.216578552592071,1.4759023703661005,-0.8645161373407213,-0.008582258613221781,0.018551233586218446,-0.5117977171014106
0.7266666666666667,-1.1941915425118212,1.2422645716313527,-0.9982466139280735,-0.005128922618495662,0.012577628400110109,-0.5478514687025594
0.7333333333333333,-1.1755776333457162,1.0153036252487033,-1.0862649496041523,-0.002807529103069645,0.00837433491521067,-0.5372383303138547
0.74,-1.158042113665186,0.8335058539549013,-1.2965182377668405,-0.0009670483898401333,0.004730624698895921,-0.41883725578070014
0.7466666666666667,-1.1395486968613322,0.7183356471215304,-1.2420521383154048,0.0006659940169539615,0.0010941503194744407,-0.32162304295265703
0.7533333333333333,-1.120403367568296,0.6539664681806355,-0.9511973392555944,0.0020399743727161873,-0.002421239004511156,-0.28576869860211473
0.76,-1.101795569160579,0.6160549254570654,-0.585511146182065,0.0030721159656112162,-0.005448887944573726,-0.3055820024561714
0.7666666666666667,-1.0836759526578001,0.5956104456054471,-0.22391205853878474,0.003798717629733534,-0.007842284737520543,-0.31035664921288125
0.7733333333333333,-1.0650785562297564,0.5845320048825641,0.07201984356400769,0.00427617511561524,-0.009568093279991804,-0.2709407827330376
0.78,-1.0452236770354768,0.5756286881626026,0.26078444310104576,0.004519147480638324,-0.010502430627190201,-0.22086620061432835
0.7866666666666666,-1.0243009192613937,0.5683752098212159,0.3525914969176281,0.004536048677108873,-0.010538269942424967,-0.17676307325082277
0.7933333333333333,-1.0025963989941626,0.5631704852263041,0.3824289661114697,0.0043693245491326594,-0.009782313947011246,-0.13910816175087154
0.8,-0.980204409187428,0.5598520542324272,0.37573203890464,0.004076610243579464,-0.008491294085387369,-0.10802741406557242
0.8066666666666666,-0.9572107501530233,0.5580949912267918,0.3487435438007522,0.0037137235436170125,-0.006965328699658772,-0.08287814505420237
0.8133333333333334,-0.9336032387723832,0.5575468501675348,0.3110157564243774,0.003326198012304332,-0.005474097160543986,-0.06297105186714208
0.82,-0.9094123928596061,0.558168543280411,0.2688627397940366,0.0029494852635415865,-0.004208291148448149,-0.04732993499842933
0.8266666666666667,-0.8847059010194933,0.5595638295648496,0.22573933567924942,0.0026007673129249402,-0.0032207598772609073,-0.03484690451104038
0.8333333333333334,-0.8594933637258914,0.5617041834433449,0.18311921000338624,0.002286818865259168,-0.0025082267479230092,-0.024909507224244034
0.84,-0.833747050169645,0.5645198231865955,0.14189003865046435,0.0020116358812031178,-0.0020547730524983834,-0.017190304590494605
0.8466666666666667,-0.8074721153117556,0.5678500476566569,0.10229438415928509,0.0017705050736391364,-0.001801345664811849,-0.011187110255412313
0.8533333333333334,-0.7807236364416399,0.5716484388788516,0.06416673459223965,0.0015534697461525324,-0.0016870784950018041,-0.00641389632110459
0.86,-0.7534539225436074,0.5759155924171807,0.02750219341422943,0.001353484290201056,-0.001693949001787659,-0.00270945545234624
0.8666666666666667,-0.7256710231570778,0.580602919733941,-0.008067602534860056,0.001157711157455445,-0.0017956332998377283,0.00024186915624352726
0.8733333333333333,-0.6974439915635636,0.5857602702292515,-0.04279933185998246,0.0009488535027741347,-0.0019859064470755913,0.0026783922846620543
0.88,-0.6686937156160984,0.5914256887592271,-0.07690069264902623,0.0006878062009521775,-0.0022974393684230703,0.00477470621978813
0.8866666666666667,-0.6394765085876885,0.5976656848131765,-0.11064819087596635,0.00029180789977003413,-0.002775730627455253,0.006843154601488013
0.8933333333333333,-0.6097216295691793,0.6045134243088555,-0.14348962048500616,-0.0010686239951761124,-0.003970793775751406,0.009762636911722836
0.9,-0.5795498368198646,0.6120257903670154,-0.16855071189464838,0.01293150766982764,0.007945426707855408,0.01484593594031507
0.9066666666666666,-0.5488778747479737,0.6203872787163945,-0.22077322243672168,0.005224081772525999,-0.004792456293057894,0.007155625023825405
0.9133333333333333,-0.5178041653155577,0.6300526296180033,-0.25761093982153316,0.007546228040714384,-0.00707229534635247,0.008687874635325457
0.92,-0.48631319469180617,0.6408698146564519,-0.2977943277014292,-0.007202094387553055,0.0025770543688265085,0.01661437315951627
0.9266666666666666,-0.45444872922477436,0.6538631772150787,-0.3191918550142584,-0.0000000000000014961058117153265,-0.0000000000000017714492359109038,0.008130096458747947
0.9333333333333333,-0.422363063163012,0.6691152535277529,-0.3505389442081076,0.0000000000000007054104433581074,-0.00000000000000014662391232394763,0.009901250240754386
