# n,energy,berry,bcd_x,bcd_y,qmd_x,qmd_y
0.00000016666666666666665,-3.1761200672667678,-0.0000000012212872617832302,0,0,0,0
0.006688963210702341,-3.12807895343679,-0.00005112082454468372,0.00000000000000000024201074538484236,0.00000000000000000014610064560975617,-0.00000000000000000036167631907501725,-0.00000000000000000016544915654727866
0.013377926421404682,-3.0804422339354183,-0.00010413212915356034,0.00000000000000000040960488301195726,-0.00000000000000000013024162098625322,0.0000000000000000006559556390359031,0.00000000000000000016695168947979392
0.020066889632107024,-3.033250086281139,-0.00015582924456157148,0.0000000000000000009164591130263428,-0.00000000000000000001845836077378142,0.0000000000000000016533726168585149,-0.0000000000000000011281423879506572
0.026755852842809364,-2.9864435522157855,-0.0002025137833460038,0.00000000000000000190195259609725,0.0000000000000000007536225066292802,0.0000000000000000008914420391390452,-0.0000000000000000007559946726759581
0.033444816053511704,-2.940049808933739,-0.00024038244936784456,0.00000000000000000178387691128757,0.00000000000000000037942238852688427,0.0000000000000000008683533892524432,-0.0000000000000000026497403235470104
0.04013377926421405,-2.8941316432554545,-0.0002656863380601753,0.0000000000000000031857587005506533,-0.000000000000000000926577294881895,-0.00000000000000000296600104046268,-0.000000000000000000023451076630410895
0.046822742474916385,-2.8485814313383844,-0.00027431554838371454,0.0000000000000000049977728356876064,-0.0000000000000000005317708032387241,0.000000000000000007561485417611847,-0.0000000000000000009046372850958374
0.05351170568561873,-2.82348689837662,-0.00024265428688383743,-0.000008734197798425857,0.000005260668793236123,0.00008481150186352819,-0.0001057936798065269
0.06020066889632107,-2.800330162408256,-0.0002005578161857664,-0.0000009773567656095975,0.0000033436011683599556,0.00002609326837080781,-0.00003372190962096356
0.06688963210702341,-2.777266028835866,-0.0001506244671423155,0.0000003661127974751612,0.000004067903963741645,0.000021456461012439082,-0.000028498415048529085
0.07357859531772576,-2.754317309591136,-0.00009253119299143536,0.0000012865734842714957,0.000004965760206163927,0.000019729600152188153,-0.00002689140462973621
0.0802675585284281,-2.7314774611272994,-0.000026054153609608518,0.00000210315596772831,0.000005966388867885109,0.000018570073597197882,-0.00002610081268794847
0.08695652173913043,-2.7087495036906915,0.000048913263065844774,0.0000029086879650944,0.000007070913195373666,0.00001734568223682703,-0.000025436250224929632
0.09364548494983277,-2.6861303805723193,0.00013296727857873663,0.0000037443780991363515,0.000008292736979632553,0.000015727246937918932,-0.00002458417023400346
0.10033444816053512,-2.6636197816967244,0.00022612921764236202,0.000004641645076009995,0.000009648033813474029,0.000013457501240800238,-0.000023353545419212326
0.10702341137123746,-2.6412015240376823,0.00032831416529408963,0.000005626013195758621,0.000011154795360424925,0.000010269270545107228,-0.000021575401862106555
0.11371237458193979,-2.618934385706209,0.0004391472550910967,0.000006714728061559633,0.000012831861806146253,0.000005881429369808744,-0.000019083496970992397
0.12040133779264214,-2.5967814077410902,0.0005595033881754914,0.000007936645500218552,0.000014709115143843774,-0.00000007078916673315287,-0.000015699147286131404
0.12709030100334448,-2.574744516370725,0.0006877884273512936,0.000009321346817605363,0.00001682358482755935,-0.000008175606740470903,-0.000011114825303830727
0.13377926421404682,-2.552812256028883,0.000823350983596741,0.000010892287146240449,0.000019212525970250066,-0.0000189084376858783,-0.0000051183003041922706
0.14046822742474915,-2.5310396508115525,0.0009655575721940445,0.000012674923035365546,0.000021898288979815096,-0.00003298119880299089,0.000002593151111734034
0.14715719063545152,-2.509378762739469,0.0011117123668908163,0.000012020225738557763,0.000026443930660455463,-0.0000299866584495733,-0.00004716744616015379
0.15384615384615385,-2.4878649493940173,0.0012590993391365865,0.000007549982507504181,0.00003344425607353278,0.0000005823559129433591,-0.0001856910432744283
0.1605351170568562,-2.466490693513377,0.0014030710344664656,0.000017462899055505807,0.00003244454447772169,-0.00008675361753480968,-0.000008859212558973677
0.16722408026755853,-2.4452546003718005,0.001536607446262419,0.000020865656759165,0.00003642324321573739,-0.0001286310828607728,0.000018870698663720628
0.17391304347826086,-2.42416428388149,0.0016498992241304352,0.00002448173800230194,0.00004132395129614312,-0.00018035140321350418,0.00004703002033181762
0.1806020066889632,-2.403235594102304,0.0017277059655097062,0.000028513976775398767,0.000047129507776407614,-0.00024635797769547276,0.0000804747515131554
0.18729096989966554,-2.3824827484586986,0.0017450937913520126,0.000033052417840353485,0.000053930941075365943,-0.0003311828124758134,0.0001218296964198706
0.1939799331103679,-2.361938097215516,0.0016621631402632634,0.00003816320188102398,0.00006185007872450345,-0.0004404446385659144,0.00017357630331897854
0.20066889632107024,-2.341611524175154,0.0014162182311478401,0.000043908260949957444,0.00007105205184896162,-0.0005814697777294338,0.00023864665714965128
0.20735785953177258,-2.321562090679943,0.0008925396411025661,0.00005031848839481487,0.00008170249607601517,-0.0007631502517232043,0.00032044260983981037
0.2140468227424749,-2.3018732660769436,-0.00012696656500772513,0.00005739496409505728,0.00009396068789349523,-0.0009961993097636855,0.00042288383420634195
0.22073578595317725,-2.2826723190864078,-0.0021073576101551506,0.0000651029697138079,0.00010794307263482787,-0.0012927234595739637,0.0005500513933478366
0.22742474916387959,-2.2643243596380653,-0.006124796114506304,0.00007322472169264135,0.00012346335243720876,-0.0016583177149269558,0.0007033504297921291
0.23411371237458195,-2.247914164605611,-0.015751404139680566,0.00008120601060915375,0.00013975522541579717,-0.0020887044168458884,0.0008796582248098552
0.2408026755852843,-2.2290985882596144,-0.022514525724118467,0.00009107710455619386,0.000161497365884716,-0.0027343989305682504,0.0011378208694548758
0.24749163879598662,-2.2079914318829643,-0.02657445004053141,0.00010289215133456556,0.00019033059748027945,-0.003710645698182773,0.0015187838638754808
0.25418060200668896,-2.1850370780755295,-0.02847225702068315,0.000116279953518985,0.00022817720204229376,-0.005202706494960811,0.002086870901668798
0.2608695652173913,-2.1603316256567555,-0.02856648044286478,0.00013035480217658647,0.0002787755772386607,-0.007614716444634104,0.0029834415971449384
0.26755852842809363,-2.133967211164166,-0.026936626178253854,0.00014256608014695448,0.00034714126578590574,-0.011724900066854175,0.004488028086109131
0.27424749163879597,-2.108981950642383,-0.01944418674678022,0.00014818679877542202,0.00042684557667537696,-0.017819520144439195,0.0067302178508317325
0.2809364548494983,-2.088310937162435,-0.005409878524029384,0.00014473861086515178,0.0005050838471705766,-0.02556684451203428,0.009667765190161789
0.28762541806020064,-2.0691481000525807,0.008428714930032074,0.00013204713903612565,0.0005865409327183124,-0.03624661976079348,0.013998192421596754
0.29431438127090304,-2.050199853397205,0.020381026349763957,0.00010970091555897368,0.0006709592227962125,-0.05207442756605436,0.021247781263076485
0.3010033444816054,-2.031515049946195,0.031085433376836856,0.00008297152491905933,0.0007468530212336288,-0.07720365381699681,0.035563150832682223
0.3076923076923077,-2.0131009924649397,0.04085029733760343,0.00007895854150112962,0.0007845952123298357,-0.13629890094889244,0.0883774226430093
0.31438127090301005,-1.9950766252139613,0.04972189443356809,0.00015960800530294585,0.0007254273098070069,-0.16278627983440164,0.09349031473531105
0.3210702341137124,-1.9776032636269583,0.05649710612885699,0.00041771644273224415,0.0004677795686768033,0.8687967610494993,-1.2895845954153293
0.3277591973244147,-1.9622377299963591,0.06094848573161692,0.00035294838097711917,0.0004105177011739922,0.31531246579220584,-0.4761157336374313
0.33444816053511706,-1.9483048437187995,0.06906414682847885,0.0007006474754886731,0.00008855707911852105,-0.027262172012893226,0.01837587022301503
0.3411371237458194,-1.9353958678382122,0.08044108238924724,0.0014205535729561927,-0.0004716977747179609,-0.06127481884332156,0.06291343565065101
0.34782608695652173,-1.9191254032997658,0.09318792325364293,0.0018445460610993904,-0.0011343669896622798,-0.07885033557414559,0.04221899626632651
0.35451505016722407,-1.9010562767308008,0.10651395547979108,0.0017672842881500364,-0.0014378509391658448,-0.07250470914645929,0.019483051813012926
0.3612040133779264,-1.8811869945586173,0.12054494314437855,0.0016689819907632123,-0.00158146639673632,-0.05412085279605095,0.008444627550694243
0.36789297658862874,-1.8595453484045577,0.13551351424292724,0.0016841065821791784,-0.0016627958276209658,-0.03667608764868893,0.007373133122661545
0.3745819397993311,-1.8360985890445665,0.15163500769265445,0.0016427159811375853,-0.0016560075925187035,-0.023972753439828604,0.00902213169581832
0.38127090301003347,-1.810720504946407,0.16904845782160602,0.0015665309860508352,-0.0016222056897833394,-0.016104427094223793,0.011625760357091616
0.3879598662207358,-1.7829323656176632,0.18833929797206167,0.001461105144815283,-0.00159732126365895,-0.012022324049069697,0.011952072125813586
0.39464882943143814,-1.7544269951907423,0.20640358286893057,0.0013039703487033537,-0.001563733931747862,-0.008754993051886064,0.0028443279575148693
0.4013377926421405,-1.7322530666884797,0.21323242785548907,0.0013855122690589017,-0.0015565083660643432,-0.017920229472208282,0.007552571252156631
0.4080267558528428,-1.7122141002447953,0.219472559937102,0.0015299281432887657,-0.0014962210915570931,-0.023347183454791864,0.010584667479499087
0.41471571906354515,-1.692794116460551,0.22781237893606557,0.0016440204407326734,-0.0014247326353573845,-0.02385587046926506,0.009917129640313454
0.4214046822742475,-1.6739471479308672,0.23758933864653273,0.0017262794107201292,-0.0013765437662706464,-0.02241857503890071,0.008383824399525026
0.4280936454849498,-1.6555947828425175,0.24857374497022058,0.0017859565317186494,-0.001357901422828995,-0.020341725547362875,0.006847433588090399
0.43478260869565216,-1.6377013340336999,0.260663696005758,0.0018318158272936976,-0.0013670546277055199,-0.018178895868248033,0.005545403950244528
0.4414715719063545,-1.6202460178045377,0.27366031407432295,0.001870516518917191,-0.0014004908073974608,-0.016154416769874873,0.0045139468602441975
0.44816053511705684,-1.6031732953474085,0.28732434886263925,0.001906916032536621,-0.0014551803039749127,-0.014343002408535593,0.003720126730650466
0.45484949832775917,-1.586581125485427,0.3017253497887658,0.0019459910326443033,-0.0015337755333097414,-0.01282321037510619,0.003168723966857976
0.46153846153846156,-1.570374470389301,0.316436762355915,0.0019906881143472,-0.001630724454229058,-0.011518881767761101,0.002769293924057298
0.4682274247491639,-1.554521004866277,0.3310974896800359,0.002155351078804278,-0.0017680289609142417,0.004043973927503396,0.032427254913584294
0.47491638795986624,-1.5390376290308327,0.3452690505676423,0.0019840666262935618,-0.0017211498642967366,0.022217111982049165,0.08414608334220929
0.4816053511705686,-1.5241547229709673,0.35770430340912057,-0.0004933792776324708,-0.0005647880213449396,-0.020922011581709164,0.09085814043952234
0.4882943143812709,-1.5101251798735185,0.36195611411009554,-0.0003839659817995038,-0.0007755107057385819,-0.02186337181511034,0.05897010292197697
0.49498327759197325,-1.4958798716009065,0.3648933174501961,0.00012907695070502105,-0.0012514503106155698,0.7864440182456719,-1.2113651731383814
0.5016722408026756,-1.4804094459251678,0.37062232630052094,-0.00027197191913759414,-0.0013817211061999586,3.704476403502811,-5.73026178299568
0.5083612040133779,-1.4646585964248857,0.38319131927089617,0.0006602811368224422,-0.0017738705279460106,1.1362658913266692,-1.656863209948944
0.5150501672240803,-1.4490293101573415,0.3973104705425099,0.0012379016114817773,-0.0021717091094755406,0.024458124659219906,0.08242182877127738
0.5217391304347826,-1.4335311300208315,0.41239141905921417,0.0015560945669983936,-0.002594045802167257,0.013708577118964616,0.070283549754829
0.5284280936454849,-1.4181452609859009,0.42821335310843545,0.0018930739604859769,-0.003092690331975403,0.010539163479703649,0.05818606831705399
0.5351170568561873,-1.4030144888025116,0.4457680405902398,0.0023104265306786885,-0.0037280822812041665,0.00856902748919083,0.050371152269667804
0.5418060200668896,-1.3880365130400114,0.46411857245188226,0.0028196494590219273,-0.004485535411477187,0.0068353202196983565,0.044773819591970965
0.5484949832775919,-1.3732038688183634,0.48327697862167296,0.003441066730785856,-0.005379703800849201,0.005231855570074583,0.04121811978226673
0.5551839464882943,-1.35856263482876,0.5037183029683951,0.0042716661858069,-0.006503897806113419,0.003653914485228613,0.040247971200559056
0.5618729096989966,-1.344136584418292,0.5255625107048887,0.0054595608116749395,-0.007960585517356402,0.0018243547453608549,0.0423922061408692
0.568561872909699,-1.3298742397325285,0.5483194934601036,0.007056307405747044,-0.009747459538961355,-0.00044011711288990106,0.04778636401214342
0.5752508361204013,-1.315813121688871,0.572082304901975,0.00925863318662102,-0.011998261878854048,-0.0034222340319865234,0.05783733676936115
0.5819397993311036,-1.3020329131427217,0.5971878813048609,0.013344947195563816,-0.015361668982034199,-0.009343808456497061,0.08250310858868909
0.5886287625418061,-1.288440792951961,0.623270625727169,0.02093060293897671,-0.02037692114416529,-0.021528517396396787,0.1348218993778221
0.5953177257525084,-1.2751071142521808,0.6507290454001499,0.034270286865612815,-0.02804514828908823,-0.04413419717442315,0.23268831799036246
0.6020066889632107,-1.262066908430864,0.6789883053436488,0.017402466795230758,-0.014139074426351813,-0.02253965397634424,0.1300590609504929
0.6086956521739131,-1.2492028924058909,0.7078796500648962,-0.0016850809871712905,0.000940285754213066,0.002856781604722946,0.01069814207105458
0.6153846153846154,-1.2367346626050963,0.7384189101476435,-0.0017710731524246985,0.0009020195912825044,0.002529010426579169,0.009953639101205614
0.6220735785953178,-1.2245934690511235,0.7693442921829758,-0.0018626572690352194,0.0008658068656160713,0.0022208430750792723,0.009327847476979805
0.6287625418060201,-1.2127189390091933,0.8005845158817438,-0.001958801031258576,0.0008312685011188762,0.0019286605733112782,0.008798852414758408
0.6354515050167224,-1.2015522910475838,0.8326567716030899,-0.00206230567961385,0.0008007695868002709,0.0016571906364631903,0.00841586772555833
0.6421404682274248,-1.1905534763375492,0.8649262955469915,-0.00216755553594703,0.0007712283942221858,0.0013906314852044068,0.00806750094285581
0.6488294314381271,-1.1813304804278504,0.8976968916772293,-0.0022717639174361054,0.0007493964964991149,0.0011568446773145614,0.007874167795015503
0.6555183946488294,-1.1722470923000223,0.9305068801015899,-0.0023758904223323486,0.0007281706727483952,0.0009256343001751827,0.007693022772379391
0.6622073578595318,-1.1624793282305157,0.9630398613750124,-0.0025047552107977486,0.0007097553456441747,0.0006522255146602324,0.007577104191818799
0.6688963210702341,-1.1523417281643213,0.9954231482925733,-0.002646988540152688,0.0006928588077976486,0.0003560127562558447,0.007496433907912581
0.6755852842809364,-1.1414122583605089,1.0277159843996593,-0.0028288077773221633,0.0006874978522446787,-0.00003321078161720053,0.007520335930440999
0.6822742474916388,-1.1299725274100834,1.0599505362561008,-0.0030361351880605764,0.0006895701387621292,-0.0004823681504278678,0.007611621744078518
0.6889632107023411,-1.1179254128657181,1.0897532726122365,-0.05032279904551632,0.03003497721469662,-0.056261264530435624,0.30024417681342247
0.6956521739130435,-1.105675928935103,1.118468828494743,-0.09758463043888937,0.05962878595838282,-0.11311767710273776,0.5953648892921211
0.7023411371237458,-1.0929928970997105,1.143045341343971,-0.04211788500215854,0.027484384923681764,-0.05884647502307524,0.27508189613437695
0.7090301003344481,-1.0800977484602423,1.1650144150432518,-0.01119378666680318,0.00849150448409371,-0.02627585474248076,0.089500277018128
0.7157190635451505,-1.0669652325760293,1.1840656593439696,-0.007733898659191264,0.004215705142639924,-0.01798905927924283,0.05465491926890688
0.7224080267558528,-1.0535496342078645,1.195773588679061,-0.006722217111947887,0.002278719742803725,-0.014828756733846525,0.04032612855937995
0.7290969899665551,-1.0400120138890772,1.2031016774807093,-0.006357097853153502,0.0009743012556991022,-0.013346162390995609,0.03144231856417497
0.7357859531772575,-1.0263141135621061,1.20409166170276,-0.006644375489673942,0.00031986839821451806,-0.013811006243957653,0.028073562624370465
0.7424749163879598,-1.0124708465156662,1.1960899334040453,-0.007492086627286321,0.00011537927713308709,-0.016709114850652282,0.02914325347583481
0.7491638795986622,-0.9985509701719791,1.1831057093149713,-0.008700513616315676,0.00016324595950810948,-0.021736218396840618,0.033282188988994335
0.7558528428093646,-0.9845396738666825,1.1640243742361063,-0.01037997360163113,0.0005217126558515809,-0.029829551415259566,0.041537053217728576
0.7625418060200669,-0.9704493622762737,1.136404123485648,-0.01296737402043009,0.0015887211579195693,-0.04838979475922034,0.06369941183880129
0.7692307692307693,-0.9563690298610211,1.1053335241934057,-0.019624536071175307,0.005531427639449265,-0.09056841366133682,0.10631441544302607
0.7759197324414716,-0.942318617708976,1.0710126105239675,-0.03192861570322393,0.013450998038027382,-0.16448984892436702,0.17545922530969607
0.782608695652174,-0.9283711505044246,1.0340959294911862,-0.011835743708499238,0.005433811135651639,-0.06198503014377166,0.06695978904524451
0.7892976588628763,-0.9145181860447008,0.9969455311663096,0.00028486534126743204,0.00049033052651986,0.0002125190215719199,0.0014040920076649355
0.7959866220735786,-0.9007706236008249,0.9597184148831328,0.0002858280485348123,0.0004903539279821968,0.00014155526315272958,0.0013788145267057145
0.802675585284281,-0.8873472899861271,0.9242931435535263,0.0002865486494858147,0.0004917161677717665,0.00007095771040230442,0.0013663206862397012
0.8093645484949833,-0.8742093275549709,0.8904109964607864,0.00028724905404844416,0.0004936788856734464,0.0000007431379127920258,0.001359958613168617
0.8160535117056856,-0.8614638090998904,0.8586471587929356,0.000287938834854037,0.0004964160021641389,-0.00006893936446936072,0.0013615737729946646
0.822742474916388,-0.8498122266971254,0.8306388744039634,0.0002890470214357276,0.0004999104279528121,-0.00013555916023397308,0.0013737494520504395
0.8294314381270903,-0.8384648802263772,0.803675051663019,0.00029027157137429167,0.0005036154699832741,-0.0002013271828073564,0.001388862130397568
0.8361204013377926,-0.8281338265525081,0.7802371373555325,0.0002932688563975596,0.00050803449539323,-0.00026629808095719883,0.0014199651506713042
0.842809364548495,-0.8178462742498569,0.7569501459436082,0.0002963420215286345,0.0005124840821297349,-0.0003312348590133421,0.001451752621137137
0.8494983277591973,-0.804877421967913,0.7414987687348162,0.00030789945246213307,0.0005188340683330447,-0.00042393880643004764,0.001535374393612
0.8561872909698997,-0.7911981745856526,0.7299257029303193,0.0003341109319573944,0.0005240700454867842,-0.000535889564936995,0.0016842081058204372
0.862876254180602,-0.7765623595479829,0.7242141276183083,0.0003844546593577871,0.0005272322896953761,-0.0006779738011541206,0.0019391097280403746
0.8695652173913043,-0.7607285280337875,0.7304760900237028,0.031637503153392234,-0.016420571300369325,-0.1798226419518794,0.1856276681220208
0.8762541806020067,-0.7440637320281298,0.7461876940784599,0.02152413752704107,-0.010468754911360581,-0.1373169132708343,0.14791435360403893
