# n,energy,berry,bcd_x,bcd_y,qmd_x,qmd_y
0.0000015,-3.010394276345843,-0.0000000000000016805798664081288,0,0,0,0
0.006688963210702341,-2.9863392071172865,-0.00000010852541327978184,-0.000000000000000000009213925927930684,0.0000000000000000000001564736846480537,-0.0000000000000000000004591352786861161,-0.0000000000000000000014131779247155216
0.013377926421404682,-2.9623644273322043,-0.0000007077144542628933,-0.000000000000000000005944159844223019,0.000000000000000000006113589247102174,-0.0000000000000000000020474861097128763,-0.000000000000000000009095592608341135
0.020066889632107024,-2.9386761630258555,-0.000002280857444231792,0.000000000000000000113770040225779,-0.00000000000000000004852112583528837,0.000000000000000000007664749932458943,-0.000000000000000000014155215245021853
0.026755852842809364,-2.915127978669917,-0.000005382975737766963,0.00000000000000000008848843440474679,0.00000000000000000007361223507503756,-0.00000000000000000002934209434938091,0.00000000000000000002692987143796058
0.033444816053511704,-2.891781945518632,-0.000010774773864479068,-0.00000000000000000006157358371067001,-0.00000000000000000028119215170890575,0.00000000000000000006651157540397188,-0.0000000000000000001747406111713904
0.04013377926421405,-2.8685456124834015,-0.000019434147957876993,-0.000000000000000000204489903122448,-0.00000000000000000004688821241905342,0.0000000000000000002695378419256066,-0.00000000000000000007571214959424601
0.046822742474916385,-2.845477669314486,-0.00003191731469867284,-0.000000000000000000006768464557996431,0.0000000000000000001005795647742097,0.00000000000000000013879850893423137,0.00000000000000000015306885275717741
0.05351170568561873,-2.822611612486803,-0.00004891802299100814,0.000000000000000000163066941747431,-0.00000000000000000035649945283373853,0.0000000000000000005327900120399392,0.0000000000000000001089700415190594
0.06020066889632107,-2.799890828903006,-0.00007226713081551966,-0.000000000000000000975199118459476,0.000000000000000000028082370572627374,0.0000000000000000008871635906941437,0.0000000000000000014739176644103225
0.06688963210702341,-2.7774057609703275,-0.0001026377605830535,0.0000000000000000008770151093541355,-0.0000000000000000031827729460957136,0.0000000000000000008219395405539092,-0.0000000000000000006116698316367396
0.07357859531772576,-2.7550559898834295,-0.00014222664310130213,-0.0000000000000000014004091404911987,0.000000000000000001578499135735374,-0.00000000000000000015306345749547318,-0.0000000000000000006237284483339849
0.0802675585284281,-2.732820998949234,-0.00019183865619255917,-0.0000000000000000016545645683834384,0.000000000000000001123718787611167,-0.000000000000000001834326024015942,-0.0000000000000000026407265788810418
0.08695652173913043,-2.7107831802412674,-0.00025214391199656234,0.0000000000000000009005999020706455,0.000000000000000005393461584998582,-0.00000000000000000025246747347279136,-0.000000000000000002783416054450102
0.09364548494983277,-2.6889098180183297,-0.0003274446211409145,-0.000000000000000001776460934395837,-0.0000000000000000017831590538783057,-0.0000000000000000010207727272446526,-0.0000000000000000024683162879495097
0.10033444816053512,-2.6671550694779307,-0.0004171978492485616,-0.000000000000000004191790226853673,0.0000000000000000030559125458593118,-0.000000000000000003925796877529341,0.0000000000000000026892381159071443
0.10702341137123746,-2.6456573811209365,-0.0005256318620865547,0.0000000000000000012309104358829422,0.0000000000000000018100046913116306,0.000000000000000001447648214096303,-0.0000000000000000024443241266417152
0.11371237458193979,-2.62437102273938,-0.000656398556839514,-0.0000000000000000015249026263730162,-0.00000000000000000040693423681835264,0.0000000000000000015506059492101526,0.0000000000000000028783766849271692
0.12040133779264214,-2.603146949339716,-0.0008085256882193799,-0.00000000000000001523416040000079,0.0000000000000000048995126682370466,-0.0000000000000000010617318373727964,-0.0000000000000000014283938805039547
0.12709030100334448,-2.5820186344072056,-0.0009836938695613382,-0.00000000000000000550270494780769,-0.000000000000000003928962520440502,0.0000000000000000032016478726087464,-0.0000000000000000043569459920903546
0.13377926421404682,-2.5611888351971586,-0.0011896253289844626,-0.000000000000000007746242364277285,-0.0000000000000000002754165138605023,-0.00000000000000000518636110633326,-0.000000000000000004272159038521067
0.14046822742474915,-2.540459702778039,-0.0014305135625276952,-0.00000000000000001530399224516247,-0.000000000000000004577437065134618,0.000000000000000004616395801052118,0.000000000000000019233069536501428
0.14715719063545152,-2.5199296368759767,-0.001711100591982975,0.000000000000000001709613638871451,0.000000000000000024347755852694653,-0.0000000000000000033405219075258533,-0.000000000000000026655651526064014
0.15384615384615385,-2.4995889385095573,-0.0020361196432298044,0.00000000000000001971894918943752,0.00000000000000000866093998908866,-0.000000000000000027608928546740918,-0.00000000000000002967927497162826
0.1605351170568562,-2.4793138283364113,-0.0024021037675904,0.000000000000000032054286148867825,0.00000000000000003434612462750283,0.000000000000000024709751495454413,-0.000000000000000011251180792036486
0.16722408026755853,-2.4592389762960867,-0.00282115585518866,0.00000000000000002773164172603821,-0.00000000000000009022936736275724,-0.0000000000000000044500747165539565,0.000000000000000001689897920550774
0.17391304347826086,-2.4392841785649977,-0.003305188666418141,-0.00000000000000001666535668138105,0.000000000000000023962285939519336,0.000000000000000002869446915858587,0.00000000000000001520764046847755
0.1806020066889632,-2.419511578891511,-0.003863513494348792,-0.000000000000000046326501035124773,0.0000000000000000064654183420902865,0.0000000000000000394862007563443,0.00000000000000002959436365495594
0.18729096989966554,-2.3999277920809585,-0.004484163917045495,0.0000000000000000647350993640491,-0.00000000000000004548367750028646,0.000000000000000019964752618611973,-0.000000000000000055166717145580096
0.1939799331103679,-2.380439856886833,-0.00518749552314743,0.0000000000000000582529597461318,0.00000000000000008648008536013302,0.000000000000000012300668372078444,0.0000000000000000276984369367097
0.20066889632107024,-2.3612691062426796,-0.005978658528845702,-0.00000000000000003788486961189177,-0.00000000000000009270683550685209,-0.000000000000000024050942465269465,0.000000000000000008457055823163825
0.20735785953177258,-2.342049694611772,-0.006861596479265635,-0.000000000000000031328231673101017,-0.000000000000000017779475750716425,0.00000000000000005881810974510492,0.000000000000000013235608101160298
0.2140468227424749,-2.3231771469374523,-0.007870554369842905,-0.000000000000000038535968341957504,-0.000000000000000013992678832629863,0.000000000000000006599887407993105,-0.00000000000000003372917463882597
0.22073578595317725,-2.3043018441779015,-0.008996794551872186,0.00000000000000013663783573911335,-0.000000000000000020306539969469898,0.000000000000000039125849667673216,0.000000000000000025030422375739426
0.22742474916387959,-2.2857221590468675,-0.010283355622421098,-0.00000000000000009857938029950601,-0.00000000000000017712978674892987,0.00000000000000007903862904584204,0.0000000000000000036528751757229836
0.23411371237458195,-2.2672982984780083,-0.011709015391780287,-0.00000000000000015643628342638928,0.0000000000000002210702388696179,0.00000000000000005721607718824531,-0.00000000000000010279238440772448
0.2408026755852843,-2.2490758628232443,-0.01331766019671693,-0.0008502141403134514,0.00000000000000013898767241400907,-0.00000000000000002081212840196825,-0.0004115130761456573
0.24749163879598662,-2.230885003248728,-0.01512378287785764,-0.0008013665285671799,-0.00000000000000007201675294578276,-0.0000000000000000024400253069156454,-0.0003945611233900185
0.25418060200668896,-2.21298102344947,-0.017138368068441608,-0.0006611412600917602,-0.00000000000000015374931350259782,0.00000000000000006866024929226646,-0.00033217559843040157
0.2608695652173913,-2.1952627191629097,-0.019350597840924216,-0.0006082447691887828,-0.00000000000000005389323152032307,-0.00000000000000003375330772453087,-0.0003101241209867532
0.26755852842809363,-2.1776609877538093,-0.021857909137188273,-0.0005836327043951039,-0.000000000000000024436678304361717,-0.00000000000000008260715259901697,-0.0003007847405512536
0.27424749163879597,-2.1601826639718293,-0.0246770072850626,-0.0005726795426438292,0.00000000000000006574153620151794,-0.000000000000000011230974398952482,-0.00029735964301628553
0.2809364548494983,-2.142886686414626,-0.027778008942759138,-0.000569465671674942,0.00000000000000028049522951691375,-0.000000000000000055494729231144695,-0.0002971085659438693
0.28762541806020064,-2.1258593547731492,-0.031244220275952004,-0.0005711336220872284,0.00000000000000007077726657743346,-0.00000000000000022807068872094877,-0.0002987265215571948
0.29431438127090304,-2.1089337542483233,-0.03512891991737963,-0.0005764021793426405,0.00000000000000026579591704034687,-0.000000000000000050646232935747716,-0.00030163630951524973
0.3010033444816054,-2.0921700464341737,-0.03951786652493127,-0.0005838245832659355,0.00000000000000040383922030539967,0.0000000000000001074059450200766,-0.0003051061754036824
0.3076923076923077,-2.075610388947413,-0.04442454509614495,-0.000593500631091004,-0.00000000000000008336613054267104,0.00000000000000011751661546709381,-0.0003093101864773717
0.31438127090301005,-2.0592944678824106,-0.04990506284319767,-0.0006043675824741768,-0.0000000000000005912301907113197,-0.00000000000000004257510725391949,-0.0003137327814789422
0.3210702341137124,-2.0431950758059005,-0.055979653904272716,-0.0006159946574431787,-0.0000000000000005776958076306021,-0.00000000000000013628006261791797,-0.00031817991504056847
0.3277591973244147,-2.0272768860986794,-0.06269348365039379,-0.0006282853161825375,0.00000000000000008442171952469168,0.000000000000000022830687815656385,-0.0003226237836610922
0.33444816053511706,-2.011570244950731,-0.07027980640321177,-0.0006411562225136222,0.0000000000000006633833212813962,0.00000000000000025171920242628205,-0.00032700849788929473
0.3411371237458194,-1.996109049394173,-0.07889276180698035,-0.00065460458554442,0.00000000000000012308244397230029,0.00000000000000008153806691734775,-0.00033132141684378094
0.34782608695652173,-1.9808703017351574,-0.08856635321782401,-0.0006686894959932313,0.00000000000000027050561145283397,-0.00000000000000006339935445949691,-0.0003356792207258951
0.35451505016722407,-1.9658400711905213,-0.09934373278429948,-0.0006831537700358233,0.0000000000000004351821947904736,-0.00000000000000015048406627243155,-0.000339967362979074
0.3612040133779264,-1.9510029298703073,-0.11125015965574978,-0.0006977236138325214,-0.0000000000000001882912210327417,-0.00000000000000018714488342394962,-0.0003440611720543268
0.36789297658862874,-1.9364924639815109,-0.12532912425617632,-0.000712309850562267,-0.00000000000000016286684765518328,0.00000000000000008432334941268797,-0.0003478379763016419
0.3745819397993311,-1.9221680360514142,-0.14132330929297277,-0.0007272413571782209,0.00000000000000014259523721909911,0.00000000000000015746049900090222,-0.0003515591914461781
0.38127090301003347,-1.9081321805854161,-0.15917765734408873,-0.0007422532247727696,0.00000000000000027513004951052304,0.0000000000000001420199456793341,-0.00035514937962173457
0.3879598662207358,-1.8945691256983541,-0.179251189635426,-0.0007570571744283976,-0.00000000000000032871286397618,0.00000000000000014487392027277,-0.00035849147079595984
0.39464882943143814,-1.8813945667771093,-0.2033556695503727,-0.0007717664017357636,-0.0000000000000005047168475032408,0.0000000000000000563836740810412,-0.00036158340616181665
0.4013377926421405,-1.8685200726876894,-0.23051706478567985,-0.0007863250735043569,-0.0000000000000005491311823015273,-0.00000000000000004323563947150345,-0.0003645131150495017
0.4080267558528428,-1.8560692500920493,-0.2619708816358027,-0.000800638648125536,-0.0000000000000004913162142701469,-0.0000000000000001335976080714834,-0.0003672267927359249
0.41471571906354515,-1.8442836950024004,-0.3016113370663472,-0.0008145218059798472,0.00000000000000017825422255519661,0.00000000000000008076977678305005,-0.0003696959170198662
0.4214046822742475,-1.8328281390825836,-0.34554944637458074,-0.0008281367397224371,0.0000000000000009046270852657868,0.00000000000000032128868862454935,-0.0003720513977192499
0.4280936454849498,-1.82284929632679,-0.41015483659876667,-0.0008402195674524997,0.00000000000000038945469981767126,-0.00000000000000007922012096514042,-0.0003739448140530411
0.43478260869565216,-1.8132665091549771,-0.4804266050722908,-0.00017108299451477926,-0.00000000000000008419932398550413,-0.0000000000000004279513942898703,-0.0007537241526970719
0.4414715719063545,-1.8065518024845058,-0.5917320810037775,0.005431179531487487,-0.00000000000000025719352048693534,-0.00000000000000040172988781410217,-0.0038700063695899975
0.44816053511705684,-1.7998370958140344,-0.7030375569352643,0.011033442057489752,-0.00000000000000043018771698836657,-0.00000000000000037550838133833404,-0.006986288586482923
0.45484949832775917,-1.79244976385538,-0.8055169908304168,0.01883862305117263,-0.0000000000000004460799878803865,-0.00000000000000037324388673658924,-0.011461532530189333
0.46153846153846156,-1.782382470438576,-0.8728305561492204,0.035420959308784604,0.00000000000000016397373676316338,-0.0000000000000004664320454958588,-0.021351329145260646
0.4682274247491639,-1.7719587537516976,-0.936282387350569,0.0513736603549186,0.0000000000000004099974147996113,-0.00000000000000038932995175133266,-0.03100432095900171
0.47491638795986624,-1.7604802686602454,-0.9883061343723739,0.06546307304915634,-0.0000000000000004212581526991649,0.00000000000000019171448534951428,-0.03995653298795916
0.4816053511705686,-1.748567901853368,-1.035097399462224,0.06598096406751355,-0.0000000000000005028778858834554,0.00000000000000005646911558519923,-0.03864159772479457
0.4882943143812709,-1.7362918521745674,-1.07750275938796,0.05512310495864807,0.000000000000000043852697222076434,-0.0000000000000006791756829370575,-0.028720663451058913
0.49498327759197325,-1.7236438296076677,-1.1125293280544009,0.02059768588818258,-0.00000000000000004327317092837991,-0.000000000000001258347518561415,-0.011192083655148559
0.5016722408026756,-1.7107502006138517,-1.1449792986421883,-0.0009835682506449167,-0.00000000000000028069342346990143,-0.0000000000000010085810888965553,-0.00038931271797529955
0.5083612040133779,-1.6975175515123577,-1.1741696428136312,-0.0010013717437688805,-0.0000000000000006908716714099816,0.0000000000000004792706427939788,-0.00039033629471279786
0.5150501672240803,-1.6839705472193094,-1.1979413969033557,-0.0010199658773454529,-0.0000000000000012049824839950532,-0.000000000000001788269725014376,-0.0003911753644734991
0.5217391304347826,-1.6703295789744426,-1.21895748873026,-0.0010388462700340684,-0.0000000000000011428439288147451,-0.0000000000000023978289663881415,-0.00039186554546025637
0.5284280936454849,-1.6566015441686794,-1.237234892570395,-0.0010579936166152915,-0.0000000000000006162734873942918,-0.0000000000000007136556863215878,-0.0003923947035510013
0.5351170568561873,-1.642552615990081,-1.2507630554959053,-0.0010777658412056204,-0.0000000000000044857189220099656,0.0000000000000022023259903879795,-0.00039262153688408933
0.5418060200668896,-1.6284094449105064,-1.261108171084586,-0.0010978980926214781,-0.000000000000004566350194330615,0.0000000000000028017504686951926,-0.00039267349933423744
0.5484949832775919,-1.6142127507519353,-1.268347745352951,-0.0011182959557152227,-0.0000000000000022801031339976958,0.0000000000000014907827787977003,-0.0003925467900245519
0.5551839464882943,-1.6000109680445995,-1.2718003884450297,-0.0011388835729003127,0.0000000000000008099085648093584,-0.0000000000000016019768532730232,-0.00039218958520802926
0.5618729096989966,-1.5856210435340492,-1.2699203855852657,-0.0011599132571451878,-0.0000000000000005718477237088988,-0.000000000000002252695717312807,-0.00039152732924064453
0.568561872909699,-1.571269055703803,-1.2643451832005057,-0.0011810629759477602,-0.0000000000000004719027745783398,-0.0000000000000013325893889473376,-0.0003906695715357951
0.5752508361204013,-1.5569765317738773,-1.254962423859161,-0.0012022986621213053,0.0000000000000010757914730784948,0.0000000000000003180627836460224,-0.00038962075955410746
0.5819397993311036,-1.542695901807879,-1.2395112956395944,-0.0012237018231539213,0.00000000000000011629362567055672,-0.0000000000000003354512910140392,-0.0003882938478442235
0.5886287625418061,-1.528467598730432,-1.2184930500822857,-0.001245186011086428,-0.0000000000000005832706994418051,0.0000000000000005036301935999461,-0.0003867146263659084
0.5953177257525084,-1.5142944032429195,-1.1924599214555305,-0.0012666996714830736,-0.0000000000000009112166851758068,0.0000000000000013240514473063646,-0.00038493289127371395
0.6020066889632107,-1.500181688885812,-1.161165125741152,-0.0012882249810826038,-0.0000000000000008065575069632229,0.0000000000000014612967828529881,-0.000382951142473733
0.6086956521739131,-1.4860304626864957,-1.1200237155940513,-0.0013100173736404755,-0.0000000000000029019471003111846,0.0000000000000006503200276934254,-0.00038063931109868734
0.6153846153846154,-1.4721791922997203,-1.071922006910125,-0.0013314452709771332,-0.0000000000000025093507112652906,0.00000000000000021855528867841852,-0.00037817209934387045
0.6220735785953178,-1.4585576723092772,-1.0167799046452208,-0.0013526039504609426,-0.0000000000000004495036377300404,-0.00000000000000007538259796232483,-0.00037555848704823005
0.6287625418060201,-1.4451423359215223,-0.9494390107731716,-0.001373555317469075,0.0000000000000022862812714973163,-0.0000000000000007707687196046747,-0.0003727192625059193
0.6354515050167224,-1.432109917866066,-0.8700555875627638,-0.0013939937844044455,0.0000000000000011258968447943264,0.0000000000000002992908717484773,-0.00036973278163388647
0.6421404682274248,-1.419340982022043,-0.7811153120665587,-0.001414071420458812,-0.0000000000000010166538735002586,0.0000000000000014316926122086138,-0.0003666569631453948
0.6488294314381271,-1.4070355679356812,-0.6726305921709137,-0.001433497270184405,-0.0000000000000012343453797438769,0.00000000000000019574908551047134,-0.0003634497575102446
0.6555183946488294,-1.395391734370327,-0.5447358151621468,-0.0014519217211174079,-0.0000000000000007854587128545384,0.00000000000000029619435611851976,-0.00036024574194130655
0.6622073578595318,-1.384170977645696,-0.4044284211235419,-0.0014697057834294953,0.00000000000000008970076381210161,0.0000000000000012512523796541864,-0.000357043766400894
0.6688963210702341,-1.3749857399206968,-0.21001747191048423,-0.001484304205027579,-0.00000000000000014240205334690162,0.0000000000000014012026599705714,-0.0003542333848136062
0.6755852842809364,-1.3661259913732573,-0.00695510668019822,-0.001498393227511142,-0.0000000000000005515613821009027,0.0000000000000014224123796560946,-0.00035148562096349646
0.6822742474916388,-1.3560783774678111,0.19846843103118494,-0.001514393239734908,-0.000000000000000687341333028225,0.000000000000000960808574470488,-0.0003481968235684816
0.6889632107023411,-1.3453871087744402,0.40517138981696116,-0.0015314287377464078,-0.0000000000000006749883796056798,0.0000000000000002375882191736979,-0.000344614862618137
0.6956521739130435,-1.3335041388860323,0.6079098858881002,-0.001550377148929878,-0.000000000000001217402311114582,0.0000000000000009755931231674897,-0.0003403869319050295
0.7023411371237458,-1.3210210773268818,0.8043652719858075,-0.00157028413993606,-0.0000000000000011932534693424771,0.0000000000000014905097412537606,-0.000335824483700665
0.7090301003344481,-1.307231329942496,0.9794039314188758,-0.0015922699633600114,0.0000000000000015910212334037973,-0.00000000000000021066323408426696,-0.0003305169692860552
