# n,energy,berry,bcd_x,bcd_y,qmd_x,qmd_y
0.0000015,-3.010394275350844,-0.0000000000000016743150925489303,0,0,0,0
0.006688963210702341,-2.986282529899012,-0.00000006591075989566393,-0.000000000000000000003784586602603947,-0.0000000000000000000005695479821887559,-0.000000000000000000000036020993956666615,0.000000000000000000003010789894193448
0.013377926421404682,-2.962305699111595,-0.00000044428901153248173,-0.00000000000000000000310280419328575,-0.0000000000000000000025465353823088356,0.0000000000000000000029189321743514297,0.0000000000000000000021250842872337094
0.020066889632107024,-2.9384423106543895,-0.0000014423514368518593,0.0000000000000000000016275289876885118,-0.000000000000000000013143136341349305,-0.000000000000000000017672085610361193,0.000000000000000000011628657296603885
0.026755852842809364,-2.914722368552713,-0.0000034390370451839925,0.0000000000000000000675322409196569,-0.000000000000000000009812825901976784,0.0000000000000000000397368354162026,0.000000000000000000021612168006430567
0.033444816053511704,-2.8911698051322854,-0.000006780171869981455,-0.00000000000000000007456155128931299,0.00000000000000000012867069841464077,-0.000000000000000000052277487547862013,-0.00000000000000000001884811174218811
0.04013377926421405,-2.8677273588376493,-0.000012204272799957334,-0.00000000000000000015270100185600069,0.0000000000000000003126407477008332,-0.0000000000000000002465834913032058,0.00000000000000000009334826999645536
0.046822742474916385,-2.844418418322048,-0.00001972284751303245,0.0000000000000000000004335382207650216,-0.00000000000000000011375328314174927,-0.00000000000000000023811053724733224,0.0000000000000000002192627621088444
0.05351170568561873,-2.821263910013107,-0.000030028212918920516,0.0000000000000000002888263490676343,-0.0000000000000000006587646184315154,0.00000000000000000019645163420785315,-0.00000000000000000014456446381841361
0.06020066889632107,-2.7981818465398685,-0.000043676305420120354,-0.0000000000000000005420092787804953,0.00000000000000000013337929313066302,-0.000000000000000000003456410672371011,0.00000000000000000020001585360176194
0.06688963210702341,-2.775274198681168,-0.00006118827777560089,0.0000000000000000002255947752866773,-0.0000000000000000003298293423108949,0.0000000000000000004610117522112564,-0.00000000000000000003668409962964907
0.07357859531772576,-2.752393878666394,-0.00008427590511069415,0.0000000000000000031054346629215517,-0.0000000000000000015739108877870257,0.0000000000000000007324528019326074,-0.0000000000000000005309057274373523
0.0802675585284281,-2.729761720948282,-0.00011228833023995298,0.0000000000000000003176043850347068,-0.0000000000000000013699682847627922,-0.0000000000000000008697665823460598,0.0000000000000000000018126926785782636
0.08695652173913043,-2.7072112011586587,-0.00014638022770303442,-0.0000000000000000026211910926787643,0.0000000000000000019678394532038447,-0.000000000000000001246063855058764,-0.0000000000000000010656858739474914
0.09364548494983277,-2.684853679374959,-0.0001873917721206156,-0.000000000000000003608680074854015,0.0000000000000000028801218706630593,-0.00000000000000000028502139917196365,-0.0000000000000000006463158946386926
0.10033444816053512,-2.6624618626823247,-0.0002355821044929308,-0.0000000000000000001772760029294542,-0.0000000000000000019321051196621017,0.0000000000000000007526271432501531,-0.00000000000000000079063664281380475
0.10702341137123746,-2.640333961184541,-0.0002926287277723339,-0.0000000000000000025234376112827727,0.0000000000000000027323163911517676,-0.00000000000000000006973258753170485,0.000000000000000001946445640308421
0.11371237458193979,-2.618258281055753,-0.0003599261897418558,0.0000000000000000027071630838039103,-0.0000000000000000014839686880322574,-0.000000000000000002225417097342034,-0.000000000000000003554339386645832
0.12040133779264214,-2.5964338682162573,-0.0004391871392685367,-0.000000000000000005744953544206272,0.000000000000000010919093697019775,-0.000000000000000003548546015770812,-0.0000000000000000003767831020867869
0.12709030100334448,-2.5745194466314745,-0.0005326693397425071,0.0000000000000000011410670149714254,0.000000000000000004106169162223748,0.000000000000000002532136983856231,0.0000000000000000021575691172383835
0.13377926421404682,-2.5529139912783116,-0.000636943665579205,0.000000000000000001985586299783043,0.000000000000000006733838221100068,0.000000000000000004281619676296511,-0.000000000000000003464317390650733
0.14046822742474915,-2.531361654686661,-0.0007591290235945089,-0.0000000000000000051391999634538596,0.0000000000000000055952546787007545,-0.000000000000000008710717652714765,-0.0000000000000000022108777114437996
0.14715719063545152,-2.5100335940372465,-0.0008943782039129075,-0.0000000000000000085857075202311,-0.000000000000000009929934222175557,-0.000000000000000003293475068171788,0.0000000000000000006760560490632779
0.15384615384615385,-2.4887133127444354,-0.0010501788452171078,-0.000000000000000010502287415457975,-0.000000000000000002910579675789328,-0.0000000000000000009973231830872448,0.000000000000000003351063758689304
0.1605351170568562,-2.4675193382288536,-0.001226074159327856,0.000000000000000009832076919287064,0.000000000000000002932955298020353,0.0000000000000000033643387580224094,-0.000000000000000007787611893738458
0.16722408026755853,-2.4464534099590676,-0.0014200188157112291,0.000000000000000005657900229215321,-0.00000000000000001056835884514013,-0.0000000000000000008245646187169293,-0.00000000000000001787876979365413
0.17391304347826086,-2.42553685756422,-0.0016486900156985345,0.000000000000000012381106161751194,-0.000000000000000021753020256328932,0.00000000000000001521609509249267,-0.000000000000000004214857988115101
0.1806020066889632,-2.404749651972665,-0.001888774947760199,0.0000000000000000017287506460784089,-0.000000000000000048584448987415756,0.000000000000000003791147965581049,-0.000000000000000010496351237344956
0.18729096989966554,-2.3840383100024196,-0.002157858927233943,-0.00000000000000002536973210184157,0.0000000000000000369107704787243,-0.000000000000000012375858019844068,0.000000000000000012617838205803941
0.1939799331103679,-2.3634942360703377,-0.0024733949666833153,-0.000000000000000005495659763604948,0.000000000000000090730309582816,0.000000000000000022841982686659502,-0.000000000000000025572999406907616
0.20066889632107024,-2.3430806244490827,-0.0028099219287687945,0.00000000000000002803704736910163,0.00000000000000008649584605635766,0.000000000000000055471141097582215,0.00000000000000001249922895462936
0.20735785953177258,-2.322765599573633,-0.0031884795532694746,0.000000000000000012427531642719284,0.000000000000000038732165606698194,0.00000000000000003089443268307824,0.000000000000000019565071566511703
0.2140468227424749,-2.3025997165627734,-0.0035987769612018583,0.000000000000000012734146004198824,0.00000000000000003402134718134629,0.00000000000000002039702785673254,-0.000000000000000003811832272745357
0.22073578595317725,-2.2825346625658534,-0.004057608910708743,0.0000000000000000493270086459774,0.00000000000000012228510409688916,0.00000000000000004147920131028892,-0.000000000000000049763041421319106
0.22742474916387959,-2.2626227671990984,-0.00457388866581142,-0.00000000000000006879712776338306,-0.000000000000000039902050789271236,0.000000000000000019971124818221316,-0.000000000000000015925498692480593
0.23411371237458195,-2.2428643252889726,-0.005134947716626262,-0.000000000000000009067779872735333,-0.0000000000000001075619935168814,-0.000000000000000005113915369857317,-0.00000000000000000180336230583144
0.2408026755852843,-2.2231132437644376,-0.005741007338594752,-0.000000000000000019565513361680382,-0.00000000000000015990601181876213,-0.00000000000000002421681493590509,-0.0000000000000000297832061773599
0.24749163879598662,-2.2035692737093355,-0.006408067434214409,0.00000000000000008355322101960507,-0.00000000000000007069088728184722,0.000000000000000036124258386622804,0.000000000000000036333555949247264
0.25418060200668896,-2.1841695876624736,-0.007151543773135776,-0.00017101193022826775,0.000000000000000013071752284163195,0.00000000000000005977141228395771,-0.00014451926209829661
0.2608695652173913,-2.1647428808504316,-0.007965811650455783,-0.00124720378837575,0.00000000000000013568707609559068,0.0000000000000000013525646222826875,-0.0010482004278886275
0.26755852842809363,-2.1455467081377937,-0.008829652596282527,-0.0006743824156871533,0.00000000000000020890592818057438,-0.00000000000000010050658120090054,-0.0005188998991977238
0.27424749163879597,-2.126533032119202,-0.009806362424395,-0.0005724255844949318,0.00000000000000004649762394360134,-0.000000000000000010125554905852401,-0.0004068458298766417
0.2809364548494983,-2.1075564373699076,-0.01087328686986208,-0.0005332403398335365,0.00000000000000014803925756443623,0.00000000000000007166553046981593,-0.00035180071815845104
0.28762541806020064,-2.088744955786154,-0.012019537433829438,-0.0005169143789072919,0.000000000000000005798191453236647,-0.00000000000000011750715773313638,-0.00031792990507956956
0.29431438127090304,-2.0701128550344916,-0.013256802153711755,-0.0005120958635153834,-0.00000000000000016917724321427184,-0.00000000000000004513577339561145,-0.00029477330762223716
0.3010033444816054,-2.0514517494786335,-0.014626075144822675,-0.0005135202433525083,0.00000000000000011920547208531608,-0.000000000000000060609952553381,-0.0002772279396488132
0.3076923076923077,-2.033016358307602,-0.016110961304985422,-0.000519195840427989,-0.00000000000000009633297049948551,-0.00000000000000004671449013410649,-0.00026358222901399646
0.31438127090301005,-2.0147607859630816,-0.01772126914368163,-0.0005275435825367979,0.00000000000000009834533637274623,-0.0000000000000001184904918220229,-0.0002524034604101458
0.3210702341137124,-1.9966165282044601,-0.01947987035693654,-0.0005379076125278109,0.00000000000000011787110389761533,-0.00000000000000012756407359157765,-0.0002429465785056038
0.3277591973244147,-1.9785386716585998,-0.021389794125256226,-0.0005499677595841185,0.00000000000000004323705513702937,0.00000000000000005528332547081435,-0.0002347770578781828
0.33444816053511706,-1.9605603022216727,-0.023442764544845267,-0.000563098088418753,-0.0000000000000001110604824760965,0.00000000000000006850197373267708,-0.00022747377234648333
0.3411371237458194,-1.9427260067190761,-0.025666624612669702,-0.0005773113465039783,-0.000000000000000013120178471165252,-0.00000000000000003338252528113457,-0.0002209319264510572
0.34782608695652173,-1.925085916836153,-0.028094295432295083,-0.0005923788431750346,0.00000000000000005801938935937732,-0.0000000000000000002545494401811592,-0.0002149991838730695
0.35451505016722407,-1.9076251029070024,-0.030716755882681208,-0.0006078020705554479,-0.00000000000000032120712580877567,0.00000000000000007592338744811697,-0.00020939669152456183
0.3612040133779264,-1.8902201733479451,-0.03352165500262231,-0.000623954102624113,-0.00000000000000028872082779378727,-0.000000000000000009813703349359854,-0.00020412749375377145
0.36789297658862874,-1.8729434886614833,-0.03662657468407247,-0.0006406212350848022,0.0000000000000001678480358025297,0.00000000000000001208827824855457,-0.00019911412388704935
0.3745819397993311,-1.8558321778163387,-0.0400075896578385,-0.00065745398136339,-0.000000000000000006981117890146827,-0.00000000000000005917589194349808,-0.00019422766640622816
0.38127090301003347,-1.8387864606883637,-0.04365106678703467,-0.0006749791138483317,0.00000000000000009148733500954696,-0.00000000000000025412746902493026,-0.00018953709891549343
0.3879598662207358,-1.8219239932878581,-0.04758604727777678,0.0036463681482599825,-0.00000000000000010946578742692037,0.000000000000000009316774581881938,-0.0034489361878397135
0.39464882943143814,-1.8051605516397937,-0.05182025212582012,0.005931977254431952,-0.0000000000000003202305820095808,0.0000000000000003113664537660996,-0.004860377832761985
0.4013377926421405,-1.788513126107696,-0.056400151214095556,0.005178828598710638,-0.0000000000000001542656880903847,0.0000000000000003457287497635568,-0.0038080232526475134
0.4080267558528428,-1.7720723937595524,-0.061386420227836025,0.005099839271512542,0.0000000000000002405588453024982,0.00000000000000019457479972381997,-0.0034540639151705434
0.41471571906354515,-1.7558319893244791,-0.06683836661570809,0.005132802054480745,-0.00000000000000044081558478451706,0.00000000000000018962917327899052,-0.0032575838057889803
0.4214046822742475,-1.7397327469883455,-0.07258864615900054,0.005187704324252292,-0.0000000000000007109778544148243,-0.00000000000000009744990961178661,-0.003123331193191364
0.4280936454849498,-1.7237394809376168,-0.0788082195504833,0.005238471086901892,0.0000000000000001240007144434398,-0.00000000000000009904856863611407,-0.0030117222360394485
0.43478260869565216,-1.707912337303908,-0.08563981661454245,0.0052786935261233785,0.000000000000000047592149691521226,0.00000000000000000437330452144221,-0.002913770792883982
0.4414715719063545,-1.692226550172344,-0.09306696663949689,0.005305541914525132,-0.0000000000000006717877395142749,0.000000000000000051186907925425,-0.002823623199844198
0.44816053511705684,-1.6765942247079975,-0.10096857113802703,0.005318206533531029,0.00000000000000012562972537023156,-0.00000000000000006555612045945339,-0.0027376739968899156
0.45484949832775917,-1.6612647632035507,-0.1097333208441219,0.0053116275549866115,-0.000000000000000012231771006593226,-0.00000000000000008599593583205854,-0.0026555583963238046
0.46153846153846156,-1.6460889914791217,-0.1191538868540073,0.005291454383769543,0.0000000000000002307246982904034,-0.00000000000000009971924401185487,-0.002574849232858539
0.4682274247491639,-1.6310668138695916,-0.12927482949431834,0.005257489247023543,0.0000000000000001444773749847825,-0.000000000000000001633491745595505,-0.0024947395623828392
0.47491638795986624,-1.6161969762992034,-0.1401520235640672,0.005209909364598373,-0.000000000000000464762528863074,0.0000000000000001669881825395058,-0.0024147966606030678
0.4816053511705686,-1.6015184637307458,-0.1521981445781772,0.005146325246003198,-0.0000000000000004972546579829499,-0.00000000000000017859919827623842,-0.0023352258147407504
0.4882943143812709,-1.5869717542100286,-0.16523122141328553,0.005068242882758838,-0.0000000000000005422332008328697,-0.00000000000000025398348979443034,-0.00225524288857991
0.49498327759197325,-1.5726197276946667,-0.179284467766565,0.0049790360724154045,-0.00000000000000037096651959296003,-0.00000000000000030197639366133537,-0.0021754472390479868
0.5016722408026756,-1.5584843382936961,-0.1943977450518105,0.004879603064030694,0.00000000000000006451855738070619,-0.00000000000000039670077716930317,-0.0020960088225131495
0.5083612040133779,-1.54453401481581,-0.2111328465337426,0.004762204185196009,0.000000000000000010764366430855611,-0.00000000000000018705846843707116,-0.0020158121861157514
0.5150501672240803,-1.5307774822886278,-0.2294050507894327,0.004633992190762485,-0.000000000000000014653311240139122,-0.00000000000000000808428751276799,-0.001935588271213009
0.5217391304347826,-1.517179543210475,-0.24904563439420857,0.004495913168186157,-0.00000000000000008715936980249806,0.00000000000000006546193451214104,-0.0018551897291217425
0.5284280936454849,-1.503776542768656,-0.2706649726454741,0.004342970986009115,-0.00000000000000040637606807483754,-0.0000000000000002064198779743846,-0.001774167316109068
0.5351170568561873,-1.4907226655254313,-0.29426485056424834,0.004177616744653649,0.00000000000000033867768143708767,-0.00000000000000025804725587344713,-0.0016934161182828443
0.5418060200668896,-1.47785243275543,-0.31938405778799706,0.00400349381198503,0.0000000000000010850038686959324,-0.00000000000000020577536464905233,-0.0016125112638269874
0.5484949832775919,-1.4651943667715148,-0.34736517918284027,0.003814050012794608,0.0000000000000005384393118620577,-0.00000000000000006117858136465368,-0.001530742208975724
0.5551839464882943,-1.452751831546887,-0.37837157820076434,0.0036104268635735147,-0.00000000000000008902887677936944,0.00000000000000004475022980910245,-0.0014481102126092335
0.5618729096989966,-1.4404623705851882,-0.4113111367166195,0.0033985037272866326,-0.0000000000000006741749356021543,0.0000000000000001679333133906737,-0.0013650811797533003
0.568561872909699,-1.428701399917777,-0.44934212223335884,0.0031709315479140103,-0.0000000000000003801602669001664,0.0000000000000006791999200922425,-0.001282267053396127
0.5752508361204013,-1.417144098184741,-0.4902357814494112,0.0029346537441505755,0.0000000000000006690557577697549,0.0000000000000005119686358052766,-0.0011990464692823838
0.5819397993311036,-1.4058712729871554,-0.5351279075823887,0.0026862162761102817,0.00000000000000277310651200715,-0.0000000000000006029610784397278,-0.0011152581614028607
0.5886287625418061,-1.3949595394059784,-0.5867792998086827,0.0024238900843082927,0.0000000000000032138074767813226,-0.000000000000000991204612104841,-0.0010308748798655413
0.5953177257525084,-1.3842196919440026,-0.6416482245520123,0.002154952609608662,0.000000000000002862723954760941,-0.00000000000000103353242305427,-0.0009462083801408775
0.6020066889632107,-1.3743560909838535,-0.7074120048724377,0.0018773990059638174,0.0000000000000018443870944575624,-0.00000000000000016836201639572516,-0.0008635218051352995
0.6086956521739131,-1.3646453894645476,-0.7750768681898623,0.0015983419426244603,0.0000000000000007096187709627327,0.0000000000000008551610567202446,-0.0007811807143990775
0.6153846153846154,-1.3561455047921047,-0.863384470819347,0.001324766616659124,0.0000000000000011836285655184857,0.0000000000000010017517555421975,-0.0007042689428887967
0.6220735785953178,-1.3478904002156589,-0.9558652328523645,0.001052299484888573,0.0000000000000019828707543824052,0.0000000000000009710608189801587,-0.0006284547686615123
0.6287625418060201,-1.3400002489941278,-1.0586520989690558,0.0007744816620591382,0.0000000000000016785697554616276,0.0000000000000008502748251802296,-0.0005530311623161754
0.6354515050167224,-1.3325452513057066,-1.1737274878358785,0.0004902839222142939,0.00000000000000005845480213621,0.0000000000000006220636441753665,-0.00047807325108354244
0.6421404682274248,-1.325090253617285,-1.2888028767027015,0.00020608618236944937,-0.0000000000000015616601511892072,0.0000000000000003938524631705034,-0.00040311533985090946
0.6488294314381271,-1.3162409446727645,-1.3872925707179264,-0.00017874459721107193,-0.0000000000000019143397088823126,-0.00000000000000036974854760439993,-0.00030581669649689996
0.6555183946488294,-1.3070968022759777,-1.4822751441745659,-0.0005848546904222778,-0.0000000000000019990142916573334,-0.0000000000000012465601712384559,-0.00020379400379688485
0.6622073578595318,-1.2971547514698814,-1.5616663406288558,-0.0009781189294756163,-0.0000000000000018148599960777012,-0.000000000000001863643279498983,-0.00011056879795377862
0.6688963210702341,-1.2868384675107511,-1.6337449055734938,-0.0013653582357812534,-0.000000000000001504620202965398,-0.0000000000000023589091213827533,-0.000021469769008703078
0.6755852842809364,-1.2743196515550579,-1.645383085538925,-0.0014683315030502983,-0.0000000000000022637016384835165,-0.0000000000000005893052597661759,0.0000028939060040246416
0.6822742474916388,-1.2611835667366327,-1.6374415856176232,-0.0014910353841662614,-0.0000000000000024628651059278016,0.0000000000000012586643388700718,0.000008998254309050814
0.6889632107023411,-1.2480601306797796,-1.6232957238331092,-0.0015138768262709169,-0.000000000000000523506869475362,0.000000000000001713449685666006,0.000015184199764900121
0.6956521739130435,-1.2350064889763788,-1.602857251799177,-0.0015367616912745964,0.000000000000001160036513813476,-0.00000000000000004753319769033007,0.000021433310211958883
0.7023411371237458,-1.2219867021771653,-1.578088621111648,-0.0015596917686066015,0.000000000000001982445770336923,-0.0000000000000015564274352348423,0.000027725674752485534
