# n,energy,berry,bcd_x,bcd_y,qmd_x,qmd_y
0.00000022222222222222224,-3.1473158680746,0.00000003178170147808441,0,0,0,0
0.006666666666666667,-3.0999103040132296,0.0009895435413275631,0.000000004822206997828252,-0.000000004467850175918125,-0.0000000023264806029517942,0.000000002320536037013775
0.013333333333333334,-3.053164175583097,0.00205892420778128,0.00000001257682768610641,-0.0000000054153650755942385,-0.000000002327599943000541,0.000000008586961849198673
0.02,-3.0071049479205483,0.003227380469577158,0.000000019706504330882952,-0.000000007419987122917208,-0.0000000043219922878539626,0.000000017866797190206227
0.02666666666666667,-2.961714508903428,0.004518885056245837,0.00000002783591675030063,-0.00000001189690150632362,-0.000000009816188589780932,0.00000002974818394061018
0.03333333333333333,-2.919234423776531,0.0058154382572827915,0.000000039334297756024636,-0.00000001486047767217786,-0.000000015994458876469272,0.000000049560627243259266
0.04,-2.895801755119903,0.00598975238740507,0.000000048957021011158325,-0.000000021906419685234453,-0.000000020877175904796242,0.00000005536759603450008
0.04666666666666667,-2.873087353912167,0.006162501183259445,0.00000005659089315672987,-0.000000026332162877898632,-0.000000026663188401185217,0.00000007059331211580578
0.05333333333333334,-2.850540559277658,0.006373281305021632,0.00000006772166045710256,-0.000000030239821155175394,-0.00000003349953540814143,0.00000008682537359221038
0.06,-2.828174050169043,0.006625794325793033,0.00000008189997268746127,-0.00000003352577258133242,-0.00000003521774386257394,0.00000010931315100932235
0.06666666666666667,-2.8059917452655148,0.006922755188200729,-0.00014600690021397512,-0.000041856870133882956,0.000057661270471990103,-0.00023771718969670347
0.07333333333333333,-2.783971999246827,0.007268043489474675,-0.00020199661467742023,-0.00006804098384200852,0.00010643927943476591,-0.00032245763538471685
0.08,-2.7621400433548593,0.007668961733429226,-0.0001933892240578939,-0.00007914058401954477,0.00013123982238939845,-0.00029546017567655235
0.08666666666666667,-2.7405024530094413,0.008127069854839158,-0.0002026989490340132,-0.00009474133313713904,0.0001536064344983991,-0.0002910304256795168
0.09333333333333334,-2.719050286573998,0.00864797026290308,-0.00021895440889678543,-0.00011288198241127805,0.00017156942762910357,-0.0002890942362809489
0.1,-2.6977515610913234,0.009237361324169026,-0.00023959264982946436,-0.00013345968075757393,0.00018218561630898406,-0.00028310182168165795
0.10666666666666667,-2.676656518011842,0.009902530603727852,-0.0002634937714235218,-0.00015658074140096031,0.00018143990016364573,-0.00026853349257387237
0.11333333333333333,-2.6557708832393914,0.010646983914952243,-0.00029011846177462723,-0.00018219620943035113,0.0001642492592484738,-0.00024079442365625123
0.12,-2.6350469370238274,0.011486243383760981,-0.0003191796253892247,-0.00021040917562110403,0.0001236646593414452,-0.00019466254822794748
0.12666666666666668,-2.61455668407441,0.012424742188677626,-0.0003502347636946585,-0.00024109946410400543,0.000050752263838480934,-0.00012440007713732115
0.13333333333333333,-2.5942595365268377,0.013476914877562605,0.00033923527588195044,-0.000032070858684898505,-0.0007126434607832732,-0.0015063303959911491
0.14,-2.5741610429655757,0.014651683141726496,-0.00016917214625347514,-0.00027692148590307934,-0.0005392360925655091,-0.00037411398301529517
0.14666666666666667,-2.5542831115482145,0.015976673952587776,-0.00023247866570873214,-0.0003397424876414868,-0.0008446306878255464,-0.00009321476386978225
0.15333333333333332,-2.5345908126357832,0.01745774247470823,-0.00024970373763327715,-0.00039109852553539655,-0.0012755063359480127,0.0001687885424623298
0.16,-2.5151659443367462,0.01914398628135833,-0.0002539738257981692,-0.0004425219768787941,-0.0018291896687412917,0.0004975829961138795
0.16666666666666666,-2.4959839879994887,0.021068552266914592,-0.0002477404919694935,-0.0004944120271542553,-0.002529688494119413,0.0009167645832844712
0.17333333333333334,-2.477047603491325,0.02327412151346084,-0.0002308926685715761,-0.0005461817966741682,-0.0034029442573349352,0.0014458240850870438
0.18,-2.458387179686711,0.025832597613752773,-0.00020225264451075923,-0.0005963642615479789,-0.004473887561791935,0.0021032308910711142
0.18666666666666668,-2.4400155436853446,0.028857724585414354,-0.00016065716005689626,-0.0006436096303533724,-0.005764975170801763,0.00290395126736445
0.19333333333333333,-2.4219864838704015,0.03249886854161704,-0.00010516467221487751,-0.0006859955227163408,-0.00728959782753459,0.0038561572897325633
0.2,-2.4043653502410733,0.036955197133678286,-0.000035043114598174276,-0.0007215872786922131,-0.009048098811450984,0.004959560608080419
0.20666666666666667,-2.3871960842320807,0.04250436406035021,0.00005036923061353729,-0.0007492645998815661,-0.011028054327816282,0.006204632473364732
0.21333333333333335,-2.3707140211798556,0.05002458232296876,0.0001552189691033175,-0.0007668436762050236,-0.013221170256612479,0.007575434380369356
0.22,-2.3554627264798476,0.061801735100543646,0.00028780315044930075,-0.000777405444649755,-0.015474226581465614,0.008942017415480225
0.22666666666666666,-2.340908848529377,0.07624440026018439,0.00041422721037688614,-0.0007743923874011433,-0.01777439870708115,0.010410525516063463
0.23333333333333334,-2.3268014959765924,0.09249612910342901,0.000529643464551215,-0.000757707704786835,-0.020126246057722032,0.012000798010755537
0.24,-2.3098408818340097,0.09851423489714006,0.0006929526146007767,-0.0007214522485276229,-0.02305240009390891,0.014098025055865158
0.24666666666666667,-2.2918298363964777,0.09991712339706345,0.0008753690948419596,-0.0006686949927574489,-0.02605174563857916,0.01640497000567952
0.25333333333333335,-2.272917712927243,0.09686370637768266,0.0010685184048836447,-0.0005982857058885303,-0.028800539743807717,0.018827207077087564
0.26,-2.2533163858417957,0.08932574540411929,0.001258317175307374,-0.0005139600235831992,-0.03086599202109825,0.021166495378367244
0.26666666666666666,-2.2331954950241384,0.07709456381302018,0.0014249962514244993,-0.00042595548302020467,-0.03161654336771984,0.023231099303541045
0.2733333333333333,-2.212846471832002,0.05977677100603992,0.0015485154716582458,-0.000348893309087056,-0.03044433642207807,0.024723007286221933
0.28,-2.1926609131942936,0.03683374913679515,0.0016143105129173406,-0.00030276999290447943,-0.02678061581804821,0.025460922289460695
0.2866666666666667,-2.1737419987037896,0.007184211664376092,0.0016238815771392546,-0.0003060701843788579,-0.020543260042157646,0.025346755395434895
0.29333333333333333,-2.155598549841445,-0.027928532402692035,0.0015598844061451855,-0.0003546552828839133,-0.0116238059111506,0.02423559981445213
0.3,-2.1355608707100715,-0.06676889641853755,0.0013790649078567398,-0.00045499262537856077,0.002147508523810269,0.02156829246669223
0.30666666666666664,-2.112294341839587,-0.11108757993019348,0.0010072943614427884,-0.0005780502445868055,0.024480795356273802,0.016188838373599246
0.31333333333333335,-2.091703808487576,-0.15982899313675758,0.0005304511626659583,-0.00043410659103803527,0.050660330492547506,0.00715123827029345
0.32,-2.070883443035257,-0.19278977004339493,0.00018192583798533752,-0.00019295920742244517,0.06991568495090734,0.0002584195941722462
0.32666666666666666,-2.0476487988022534,-0.20138244315611487,0.0000017066449334998478,-0.00007591675907252284,0.07934774504188956,-0.001259552224695776
0.3333333333333333,-2.024021276159519,-0.20062593680825686,0.000826184233767175,0.0003479678412533366,0.048818201356606465,0.021667317655217753
0.34,-2.000047457641022,-0.1912363426468563,0.0008666470277767762,0.0006346118343287883,0.04807521301565036,0.022680810778247455
0.3466666666666667,-1.9759457336693385,-0.17301010322080415,0.0009250064502133408,0.000725513466898411,0.05101987311086652,0.02091165317915953
0.35333333333333333,-1.9519816670947192,-0.14697524985913962,0.0009917976060663265,0.0007396660578287923,0.05578210115580838,0.01924725079797047
0.36,-1.9317848215068465,-0.11500717520563913,0.0010226516231539588,0.0007172441403922771,0.06179372993332201,0.01717570701098832
0.36666666666666664,-1.9165800128315698,-0.08137542768512503,0.0010233640619431127,0.0006905324242446543,0.0684534852388448,0.015375455004180635
0.37333333333333335,-1.90183304936608,-0.05056425061382482,0.0006128345296716037,0.0007566775473343361,0.09649383158112845,0.016937735740092663
0.38,-1.8873759411242816,-0.0216180962621526,0.00053252129340788,0.000843233327625556,0.11527413395489768,0.015249214294952131
0.38666666666666666,-1.8731854623144946,0.0055858407856065485,0.0006059794205081,0.0009279556899906587,0.12971164061003865,0.01204974973544921
0.3933333333333333,-1.8593956001186231,0.030112136133598342,0.0005730795364693881,0.0009635626947799242,0.14701654770781938,0.009908029006486678
0.4,-1.845989039431718,0.05078801195945971,0.000542573987772298,0.0010381582791908067,0.16536237324282546,0.009832754657174012
0.4066666666666667,-1.8328366600645785,0.06811274371134968,0.0005256458312534464,0.0011637301253806522,0.18285365156665467,0.012666244886099853
0.41333333333333333,-1.8201842289079833,0.07671342378211451,0.0005674743887476738,0.0014567233293609181,0.19453441992519757,0.025333593539068014
0.42,-1.8081597720878948,0.06297613011500795,-0.0007730557080905644,0.002038828210273155,0.22392966384215843,0.08960254885445948
0.4266666666666667,-1.796635235925924,0.03145592099603749,-0.0032140601524507616,0.0028510904262847494,0.2674271278094271,0.19495074525170825
0.43333333333333335,-1.7846545691633917,-0.010440333621251768,-0.0017112584947451808,0.005455799257322497,4.556643945267792,7.078832236549522
0.44,-1.7725383573060813,-0.05529204907439589,0.000250612709122347,0.008144649225211532,9.028014073253612,14.325527391677351
0.44666666666666666,-1.7603668672471335,-0.10001833937756252,-0.005016567107457742,0.006201899488743317,2.343236769219007,4.539141493267323
0.4533333333333333,-1.7486285343007948,-0.14401694918827507,-0.008232526597803224,0.005182395128306894,-1.412701898649016,-1.045397107134149
0.46,-1.737539666367838,-0.18692449294694288,-0.008372937291077565,0.0055471819477792015,-0.7772126788980267,-0.32979025870937084
0.4666666666666667,-1.7273415685375675,-0.2290242954961591,-0.008655450098928928,0.006103930003318755,-0.4605186587752857,0.007497213592932317
0.47333333333333333,-1.7178691476818297,-0.2704660615943174,-0.00905372816682888,0.006817061674110763,-0.40353512429209354,0.03658208744270581
0.48,-1.708538242603246,-0.31210101422039294,-0.009434336920186477,0.007539708707361293,-0.369617692503997,0.05601893105031549
0.4866666666666667,-1.6994319686482948,-0.3540426160958276,-0.009786898779697416,0.008277459685937323,-0.3723135957830184,0.06014124282463293
0.49333333333333335,-1.6906983923035876,-0.40263807181029204,-0.010122453042164208,0.008971187030933116,-0.3741215666883539,0.06356651806805391
0.5,-1.684354887883434,-0.4939040164509593,-0.010348939312022468,0.009382595284674222,-0.37023531745673083,0.06252176882757216
0.5066666666666667,-1.6780113834632804,-0.5851699610916273,-0.010575425581880732,0.009794003538415334,-0.36634906822510777,0.061477019587090405
0.5133333333333333,-1.6716678790431267,-0.6764359057322938,-0.010801911851738991,0.010205411792156439,-0.36246281899348476,0.06043227034660866
0.52,-1.6636287421185045,-0.7380110401949915,-0.011017108685428594,0.010619918384854174,-0.35643790817005105,0.05779094538038987
0.5266666666666666,-1.655406767420136,-0.7963846545055583,-0.011231088194390995,0.011034759067276915,-0.3501823883418875,0.054977463799726796
0.5333333333333333,-1.6465743227485141,-0.8430499314563089,-0.01142895535137997,0.011455388838094088,-0.3434231392169199,0.05180106532105818
0.54,-1.6368593914024239,-0.8727898031407646,-0.01160353072247632,0.011884387232413205,-0.3359357062148656,0.04810003935789201
0.5466666666666666,-1.6269263442651183,-0.897092483188269,-0.011743624461590387,0.012286562154506934,-0.32830632860278147,0.0442599224638779
0.5533333333333333,-1.6164803802146972,-0.9086091676189509,-0.011802631855983759,0.012625659513549388,-0.3203431567669769,0.04009272200339968
0.56,-1.605909144018781,-0.9149474713492785,-0.01180918551036997,0.012933781744098934,-0.31221603924718,0.035861751306859244
0.5666666666666667,-1.5950898276571281,-0.9110308733429814,-0.011711863459083356,0.013180563003917537,-0.3037642551999938,0.03150449451001446
0.5733333333333334,-1.5841925652368725,-0.8998520005436068,-0.011514802617269115,0.013347485509838943,-0.2949815787728788,0.027133864193820398
0.58,-1.5731962730364177,-0.8794464716516427,-0.011191024521493835,0.0134129481730545,-0.2857785064945672,0.022746242939208558
0.5866666666666667,-1.5622378998878783,-0.8475857121812084,-0.010708810351773781,0.013340810148705225,-0.2761489417789996,0.01844324861980942
0.5933333333333334,-1.5513074584288105,-0.8072868740357504,-0.010109890014705117,0.013167313586048418,-0.2662052169323708,0.014202591652108264
0.6,-1.540635423701053,-0.7487245083457766,-0.009333025729061986,0.01277253291340714,-0.2558326325150903,0.010175457814309789
0.6066666666666667,-1.530074134715286,-0.6823349165652945,-0.008479899751172635,0.012282916193629648,-0.24527625113895873,0.0062398338893266585
0.6133333333333333,-1.5203298866255954,-0.5832055507651618,-0.0075134983484542,0.011564885685239912,-0.2344159270078418,0.0028211276760923215
0.62,-1.510845635467506,-0.4736578071000873,-0.006511050692698914,0.010774169850497676,-0.22345888289115456,-0.00043308613585531057
0.6266666666666667,-1.5020816155235348,-0.33439602073507135,-0.005443526629855224,0.00980324392579546,-0.21294125306439676,-0.0032332781707489584
0.6333333333333333,-1.4938043209302736,-0.175053769138024,-0.004332024554892491,0.008710533749705946,-0.20272057520275846,-0.005726646640744854
0.64,-1.485238303045963,-0.019933837950249972,-0.0031734367441596935,0.007507080758633709,-0.19203672054653448,-0.008227513779792165
0.6466666666666666,-1.4745476067442955,0.10411456792980463,-0.0016683509207708147,0.005488685308238999,-0.17794440606255962,-0.010783562682092664
0.6533333333333333,-1.4634649900007288,0.2184879251372975,-0.0000604373024199111,0.0032283649428658727,-0.16344490907104375,-0.013341796359078248
0.66,-1.4508315287854843,0.2945767374653175,0.0019543699104039086,0.000010738254970838,-0.14733417501895504,-0.015908675274688644
0.6666666666666666,-1.4356782034553774,0.2790714498942145,0.002427859802299349,-0.004728883777965017,-0.12718639382622407,-0.01560207761747429
0.6733333333333333,-1.4158554424700613,0.3201444022742135,0.002806223856269327,-0.009154245167736025,-0.1142349284863039,-0.015307248241544441
0.68,-1.3911438832396044,0.5906837372386249,0.005329460102865435,-0.011610216323910526,-0.11870221031999824,-0.01921350342530027
0.6866666666666666,-1.36903910837346,0.8511176906172152,0.007073954649068629,-0.015021892554407045,-0.105647282268163,-0.03590802649630858
0.6933333333333334,-1.3485354698631775,1.1216610698877922,0.01650892894462499,-0.017507530743798072,-0.11361457998348938,-0.016428759758753343
0.7,-1.3286424330180966,1.432740959598675,0.02355570526343503,-0.01900430848189248,-0.10292061070468812,-0.01138399689874061
0.7066666666666667,-1.3094956455534528,1.7964788473870985,0.02860776984908974,-0.0201350040403008,-0.08058044754654377,-0.016603344247078537
0.7133333333333334,-1.2882227908026134,2.17730355392915,0.03401425523089993,-0.021011152698351337,-0.053049688659818024,-0.021170245228883222
0.72,-1.2674406281586097,2.5980971401704527,0.037240613133276326,-0.02109921244157454,-0.024901612858803206,-0.02421813702133725
0.7266666666666667,-1.2454580322386837,2.8948529621169015,0.038135952438894095,-0.0205117872919867,0.003662362677790132,-0.025756827583690488
0.7333333333333333,-1.2218368484309272,3.053991587246231,0.036564979455237685,-0.019479695417690086,0.02981598655378504,-0.02597440689680491
0.74,-1.1977176501561986,3.1395135486864354,0.03227381354146842,-0.01818418281541475,0.048853933478738315,-0.02522492908201078
0.7466666666666667,-1.173480428150501,3.1765745813985764,0.026250030526230324,-0.016869630018281997,0.05971724235724863,-0.023974762823299172
0.7533333333333333,-1.1494307968578539,3.180359657912504,0.019794195214067313,-0.015711234668263643,0.06403536826504537,-0.022403197046785072
0.76,-1.125706722671312,3.15475326929241,0.013671353182401487,-0.014738077892959656,0.06349970715789846,-0.02057420272609419
0.7666666666666667,-1.1024527939969075,3.1008702103237646,0.008334842382247359,-0.013919771186924326,0.05971502399934137,-0.01847123799686987
0.7733333333333333,-1.0799028449561137,3.0167410240255994,0.003978768272142247,-0.013187860395597875,0.05405945633066547,-0.016087350470205812
0.78,-1.058425555850157,2.895771387744517,0.0006853182156311825,-0.012514815650016909,0.04776712114460392,-0.013557055237405186
0.7866666666666666,-1.038739756721605,2.7119947465562104,-0.0015856469830121825,-0.01189110209797405,0.04165057329048722,-0.011081376853833168
0.7933333333333333,-1.0206597487745435,2.4816490669000757,-0.0033257883862837395,-0.011201142408997918,0.03631561993382834,-0.009022195820480165
0.8,-1.000931421351269,2.3210056425495615,-0.0047164818397539155,-0.0103984859449301,0.030823288495505474,-0.0068117491691249196
0.8066666666666666,-0.9795008416503457,2.225895342587564,-0.005563380999876646,-0.009521400216570155,0.025397276111984775,-0.004414024565999536
0.8133333333333334,-0.957047366227264,2.1627229666316876,-0.005874309961855228,-0.008587489649269295,0.02046370494487869,-0.001996027582585206
0.82,-0.9338072350491807,2.1192817791246314,-0.0057412731026820684,-0.00759765910713635,0.01620757909209005,0.000331095755079415
0.8266666666666667,-0.9097661109073819,2.0902474002598623,-0.005173280722449854,-0.006569916333701472,0.01275685970723247,0.0024972510717562986
0.8333333333333334,-0.8850710709480339,2.0713429624090813,-0.004217776050445177,-0.00552479887273606,0.0100905145710774,0.0045179868346157444
0.84,-0.859808895376806,2.0593284407049968,-0.0028476707551233164,-0.004473358995514497,0.0081633274270872,0.006468153121355114
0.8466666666666667,-0.833947882176862,2.0526542160320633,-0.0008859377189931162,-0.003365538891128981,0.007008510662135653,0.008528233374483577
0.8533333333333334,-0.8074725002151566,2.0507851041834924,0.0026460823461811056,-0.001964196265128365,0.007051629252983854,0.011411006084620425
0.86,-0.7803972048709357,2.0524396581253765,0.015878715614639598,-0.010828539823819773,0.0030384514702960627,0.02424918631498174
0.8666666666666667,-0.7527693460154351,2.0569910758699463,-0.0015790747834004241,-0.00725522730829432,-0.0005648964101312493,0.011298647467798892
0.8733333333333333,-0.7245951193205338,2.0643311374100928,-0.008982079493562618,-0.002120691722874537,-0.00003541022193317106,0.00495988138934557
0.88,-0.6957697312328448,2.0738587725070503,-0.008750347313291171,-0.001539359514946469,-0.0003595152848635637,0.005432451678254488
0.8866666666666667,-0.6664032396593755,2.0853811031126526,-0.0086362827234618,-0.0010449371276441918,-0.0005948743935236028,0.005875953305992355
0.8933333333333333,-0.6363961184150762,2.0991315357751397,-0.008685923365469009,-0.0006602969358044769,-0.000760517579005849,0.0063266270467144175
0.9,-0.6057831342528155,2.114557675382978,-0.008885289307749511,-0.0003696577968246873,-0.0008925721193306207,0.006817365746939553
0.9066666666666666,-0.5745810291686029,2.131920037347179,-0.009295824601105871,-0.00020159797594229714,-0.0010046552303041572,0.007398413062283683
0.9133333333333333,-0.5427124533371792,2.151193353852398,-0.00992384338493495,-0.00014776227726249873,-0.0011138017338587494,0.008102558573081942
0.92,-0.5101370163225513,2.1721386410864643,-0.01088680043477453,-0.0002531696442212731,-0.0012341366833749474,0.009028965308840349
0.9266666666666666,-0.47690225961474836,2.195410253184588,-0.012270869412072442,-0.0005302902790176654,-0.0013836560246014227,0.010267637594004092
