# n,energy,berry,bcd_x,bcd_y,qmd_x,qmd_y
0.00000016666666666666665,-3.1727822015861533,0.00000003003091116136743,0,0,0,0
0.006688963210702341,-3.125385252267668,0.0012497138060543526,-0.0000000000000000026495385036733363,0.00000000000000000040606754406854156,-0.0000000000000000011034880347162867,-0.0000000000000000004602020543224715
0.013377926421404682,-3.0786825008834535,0.0025949508975515283,-0.000000000000000004043149261330185,-0.000000000000000000580187337991906,-0.0000000000000000027573951357060515,-0.000000000000000003329497282393057
0.020066889632107024,-3.0326586590634754,0.004054770495094914,-0.000000000000000001998635973362304,0.0000000000000000016481530728005163,-0.0000000000000000007164810289985947,-0.0000000000000000014782530651885637
0.026755852842809364,-2.987336364912955,0.005651075230458057,0.0000000000000000013980724028653183,0.000000000000000009172700323085925,-0.000000000000000002354068330327684,0.0000000000000000026702164665833065
0.033444816053511704,-2.942650964902319,0.0074149154533776586,-0.0000000000000000034490393854335122,-0.000000000000000003409799128394702,0.000000000000000005186694336313876,0.0000000000000000048373627209720205
0.04013377926421405,-2.907612783505828,0.008579018236094544,-0.0000000000000000039134345684545294,0.0000000000000000316359336371444,0.000000000000000024503414884106326,0.000000000000000013543902255116966
0.046822742474916385,-2.8842078875837136,0.008837513666505054,0.000000000000000010672287623296775,0.000000000000000016848218285561044,0.0000000000000000053836654862552304,0.00000000000000001584431220391775
0.05351170568561873,-2.8616837960018477,0.009075332218110665,-0.000030490693814198684,0.000017475032244700875,0.00004544464958209723,-0.00003911648596114733
0.06020066889632107,-2.8393622839886676,0.009363445313122196,-0.0005366280415861287,0.00030532106342721194,0.000800801561050222,-0.0006833569215505162
0.06688963210702341,-2.8172263196290084,0.009709035593605444,-0.0001306495133733381,0.000055783086295042195,0.00020200680724863864,-0.00012390340279663114
0.07357859531772576,-2.7952724697291043,0.010108306880135295,-0.0001285483535317703,0.00004391544089686344,0.00019610954956832255,-0.00009529970322315852
0.0802675585284281,-2.773517998152908,0.010572875472445545,-0.00013876225951094318,0.00003901100665172098,0.00020245042624059261,-0.0000815150907345911
0.08695652173913043,-2.751958875167833,0.01110873561744955,-0.00015386361201211185,0.00003617077918078903,0.00020853360393240897,-0.00007178696923261873
0.09364548494983277,-2.7305802998415407,0.011722766257902847,-0.00017209798944142497,0.00003411020196296523,0.00020944954034235116,-0.00006350959446764539
0.10033444816053512,-2.7093828626887038,0.012422525013952572,-0.00019280317052690102,0.0000322752435702861,0.00020111818084631337,-0.000055887210985852564
0.10702341137123746,-2.688395516247098,0.013214062543934093,-0.0002156227064012029,0.000030393600477141974,0.00017920311972642562,-0.00004888605715001281
0.11371237458193979,-2.667619207205741,0.01410750273676746,-0.0002402325242446547,0.00002826028213763248,0.00013843887913114956,-0.00004290414594096914
0.12040133779264214,-2.647056080288549,0.01511727938794443,-0.00026636547399538717,0.000025721075346690052,0.00007252521369750784,-0.000038784972053793564
0.12709030100334448,-2.6266840051176943,0.016252045229169346,-0.00029367706543126284,0.000022650347127962176,-0.000026296168341150576,-0.000037809429475527804
0.13377926421404682,-2.6065385748105787,0.017529892478271865,-0.00028099028353307436,-0.000004539613744881714,-0.00011778187714040145,-0.00014219811815706796
0.14046822742474915,-2.586633563405085,0.018970767603707386,-0.0002403419003982652,-0.000054896993381836016,-0.00025660014262941745,-0.00035157903784265233
0.14715719063545152,-2.5669401039171107,0.020592170596437174,-0.00025948426736928837,-0.00008001469580978309,-0.0005734768066580148,-0.00045590366381240306
0.15384615384615385,-2.5474942709293145,0.02242573179236644,-0.0002912413648515496,-0.00009476922150747585,-0.0009687977913298889,-0.0005081175876891311
0.1605351170568562,-2.5283123762348696,0.02452336495574999,-0.00030892473164520007,-0.0001181513191170738,-0.0014430179315344433,-0.0005970184643316451
0.16722408026755853,-2.5094118580608256,0.026911167984233715,-0.00031841279319584317,-0.00014655778256661466,-0.002018927886072211,-0.0007097048293331551
0.17391304347826086,-2.4907899800835582,0.029687489133802838,-0.00032017830435426944,-0.00017924725887879183,-0.002712198788908391,-0.0008451907318501148
0.1806020066889632,-2.4725551573111435,0.03300346863554194,-0.00031244899445821055,-0.00021613098714664072,-0.0035497502000796065,-0.0010062486609436808
0.18729096989966554,-2.454698239355906,0.03698365466846572,-0.0002953565493573802,-0.00025622178161822153,-0.004520193672154941,-0.0011894034846364517
0.1939799331103679,-2.4372900758978044,0.04184930677647656,-0.00026857361285258544,-0.0002988084274100545,-0.005615538603943794,-0.0013916346339840498
0.20066889632107024,-2.420448922357939,0.04800476356682253,-0.00023243610936138457,-0.00034287523053860456,-0.006813320960757022,-0.0016069428440611284
0.20735785953177258,-2.404356119585508,0.05611578865826826,-0.0001883224164837484,-0.0003871258854972886,-0.00807537923816212,-0.0018266930059663074
0.2140468227424749,-2.389348452498157,0.06734403309623212,-0.0001375170669718354,-0.0004299975322621033,-0.009357541031081976,-0.002040385485923455
0.22073578595317725,-2.3755429868252156,0.08224582889205609,-0.00008127281198576688,-0.0004701059522834022,-0.010612454416412148,-0.00223264128847464
0.22742474916387959,-2.3608706969787256,0.0942911349171223,-0.000015786537874524204,-0.0005125717119345201,-0.011969668214032562,-0.0024234458937745285
0.23411371237458195,-2.3440759307833146,0.09933636630326259,0.00006702678340904405,-0.0005603639576894808,-0.013530935256765648,-0.0026103326981018727
0.2408026755852843,-2.3259935173590116,0.0993890697868304,0.00016340417197896354,-0.0006091436930236559,-0.015132681160985345,-0.0027349668638061847
0.24749163879598662,-2.3069660598388713,0.09482320327096713,0.000266535118803445,-0.0006552178379571822,-0.016559973463149427,-0.0027138640031386164
0.25418060200668896,-2.287214617390939,0.08604916136008883,0.00036702522797402317,-0.0006961251715963562,-0.017596265535687564,-0.0024673760030377947
0.2608695652173913,-2.2669326531339826,0.07280366926348136,0.00045348535249512987,-0.0007298166073917481,-0.017968793126913112,-0.0018890097618696276
0.26755852842809363,-2.24628124940547,0.05479429913317678,0.0005129343484300196,-0.0007553445958620495,-0.017385056226190798,-0.0008658151451891116
0.27424749163879597,-2.225523517992829,0.03163115836659142,0.000532562594971575,-0.0007729838115361511,-0.015561825296831129,0.0007024532014826173
0.2809364548494983,-2.205036217254092,0.002897443178597199,0.0005036066636289245,-0.0007820843856101523,-0.012291245567076498,0.002867376736281451
0.28762541806020064,-2.1858515140440016,-0.03186710391519287,0.00042769748079796236,-0.0007769524424975746,-0.007613329637359005,0.005527478321880163
0.29431438127090304,-2.168343676511595,-0.07173482477540324,0.00032017109727199553,-0.0007386756564841346,-0.0016973369716762401,0.008517810213161982
0.3010033444816054,-2.1483034388253723,-0.11614993237966295,0.00016974211798967854,-0.0005918139995550677,0.0074522836350429285,0.012567447424584474
0.3076923076923077,-2.119854522898051,-0.15241135279665252,0.000047891754015847846,-0.00031334421512435704,0.018497938561977165,0.017097537417772164
0.31438127090301005,-2.0971085904553943,-0.17621902357632402,0.0000029608342247101013,-0.0002110138334807783,0.021983878649825598,0.019307221782329447
0.3210702341137124,-2.0749008875284414,-0.19127223842574376,-0.000031263522567294546,-0.00011630776677862684,0.02518194985739112,0.021278923771538363
0.3277591973244147,-2.0521686431179904,-0.19724929176074568,-0.000055300037813484775,-0.000022308516395098222,0.02846682699156449,0.023166525696737477
0.33444816053511706,-2.029038153227917,-0.1948088923844764,0.00011438928505612185,0.0000040650827795438694,0.023206246299076153,0.023362568655006802
0.3411371237458194,-2.0056647243441077,-0.18451223273030418,0.0005074414528490872,-0.00006729390094444295,0.009190024851893377,0.021321912495257733
0.34782608695652173,-1.9821130654919523,-0.1668633097406193,0.0005739202351667847,-0.00007224933230847043,0.011755268266909216,0.021837462666642646
0.35451505016722407,-1.9584609579280887,-0.14237379820812748,0.000607730848996505,-0.00009557102157288041,0.014594925757407819,0.022774041101482425
0.3612040133779264,-1.9348301488774813,-0.11161824396340611,0.0006135869362030619,-0.00012277558980123093,0.01839668264312929,0.02422914589280758
0.36789297658862874,-1.9163350245178739,-0.07698546156078837,0.0006029743516846076,-0.00014221434944776949,0.022274046706132124,0.025856259182432093
0.3745819397993311,-1.9011718070859462,-0.04467556487485064,0.00047767459258724455,-0.00004536292117985977,0.03048223424648619,0.03361994022888562
0.38127090301003347,-1.8870679590019175,-0.014511564450016758,0.00040022183102765,0.000056226741048316433,0.03856672100617365,0.04065886937775686
0.3879598662207358,-1.8733095618437703,0.01268878095667358,0.0005154320352669241,0.0000834045887189014,0.04316398644213852,0.04152479095821744
0.39464882943143814,-1.859986743663062,0.03490447676339373,0.0005553469464588984,0.00014217339610790092,0.048576826593929506,0.04457820651811045
0.4013377926421405,-1.8469211826623577,0.05314551067830559,0.0005872040544732474,0.00022354388746004706,0.05294159780192113,0.04792223720482947
0.4080267558528428,-1.834334525732846,0.06262286059239565,0.0006522682158011566,0.0003522104017394675,0.05333002313805683,0.05048156891188123
0.41471571906354515,-1.8224585666674924,0.04751480298503258,0.0002585741114107671,0.0010882232371750727,0.045482818153307326,0.05948839442368255
0.4214046822742475,-1.8110628829219972,0.015792421546547156,-0.0004451396003502543,0.0022346684987774854,0.03207013986960194,0.072852306547849
0.4280936454849498,-1.7992123655688368,-0.026597524922198974,-0.00026473544350721055,0.0028513506107259697,-0.017021509101378812,0.5329570901954763
0.43478260869565216,-1.787217974983164,-0.07197915338115604,0.00010027373200316051,0.0033413692647186527,-0.07375730085300568,1.0080089856200438
0.4414715719063545,-1.7749301835707314,-0.11792279253328503,-0.0005341199299229749,0.004165225522903199,-0.09337064007576798,-0.3154482373874965
0.44816053511705684,-1.7630149596290559,-0.16319113346425565,-0.0009398417108144833,0.004789853385648454,-0.12793355277248963,-0.9385255784329611
0.45484949832775917,-1.751720744619276,-0.20733386290214495,-0.0009644049318691486,0.005082400154991823,-0.18741495509604283,-0.394184407243688
0.46153846153846156,-1.7412257033919867,-0.2516186761625443,-0.0009778063450755084,0.005377417808814856,-0.19539884806412938,-0.1288988493566561
0.4682274247491639,-1.7313982069963354,-0.29602217114580964,-0.0009818843704229154,0.005674499376895472,-0.16036719552056755,-0.09670668927701592
0.47491638795986624,-1.7221663753986187,-0.34119460612142893,-0.0009429087717012992,0.00602209334471372,-0.1419204325004969,-0.07940177754361522
0.4816053511705686,-1.7136876624288078,-0.3873392372617226,-0.0008494990576892273,0.00643355180362586,-0.14444249168581969,-0.08091930434727385
0.4882943143812709,-1.705218065416063,-0.433652553739489,-0.0007562710068348142,0.0068443579547683405,-0.14695249069263017,-0.0824325476053119
0.49498327759197325,-1.6991323584793276,-0.5240783313735999,-0.0007105492129309155,0.007084580808143387,-0.14630866397794093,-0.08282561205806895
0.5016722408026756,-1.6930466515425922,-0.6145041090077109,-0.0006648274190270167,0.007324803661518433,-0.1456648372632517,-0.083218676510826
0.5083612040133779,-1.6869609446058569,-0.7049298866418219,-0.0006191056251231181,0.007565026514893479,-0.14502101054856245,-0.08361174096358305
0.5150501672240803,-1.6795506043433013,-0.7751192293834467,-0.0005698360361817889,0.007818706827860606,-0.14319221496387477,-0.08359200173448517
0.5217391304347826,-1.6712840493034076,-0.8322281714905388,-0.0005182732280689332,0.008081085756167969,-0.14059748073231682,-0.08330543499497052
0.5284280936454849,-1.662870445904167,-0.886966276100621,-0.0004654103605895465,0.008340858780508482,-0.1378948815786647,-0.0829803160450982
0.5351170568561873,-1.6532296863307605,-0.9219191353307741,-0.0004016981651373536,0.00857888486964755,-0.13429212205796456,-0.08233346903801934
0.5418060200668896,-1.643588926757354,-0.9568719945609271,-0.0003379859696851607,0.008816910958786619,-0.13068936253726443,-0.08168662203094049
0.5484949832775919,-1.6332443830951324,-0.9774117328769801,-0.000258312702999973,0.00899043814022085,-0.1266177510349366,-0.08083997151259015
0.5551839464882943,-1.6228728191596293,-0.9973981104789675,-0.00017802664538439766,0.009161489025103024,-0.12252813897125285,-0.07998564996904484
0.5618729096989966,-1.6120731844841578,-1.0049474616190646,-0.00007771790122233054,0.009231552962357089,-0.11810880486832338,-0.0789345628501114
0.568561872909699,-1.601244429429616,-1.0113435846056151,0.000024378236444772672,0.009289821561167923,-0.11366028681728327,-0.07786199693965518
0.5752508361204013,-1.5901593917032404,-1.005353242283423,0.0001453023768939695,0.009208409602045711,-0.1089057380657438,-0.0765414565488447
0.5819397993311036,-1.5790732332670052,-0.9964274780247301,0.0002684708661676264,0.009088979878982861,-0.10409162932493445,-0.07515344206766764
0.5886287625418061,-1.5679824155995719,-0.9752980114888734,0.00040096999527852175,0.008811495374559325,-0.09902990630842497,-0.07348491128318946
0.5953177257525084,-1.5569532680920102,-0.9480351396688245,0.0005309128072157576,0.008453968526810475,-0.09387468861650342,-0.07167407944935868
0.6020066889632107,-1.5460491998683246,-0.9083325086156975,0.0006556709022314431,0.007934099972736666,-0.08852984522763023,-0.06957463293729635
0.6086956521739131,-1.5354059782129679,-0.8566464776988028,0.0007615080640196573,0.007301605678021889,-0.08315013496233721,-0.06728947903029048
0.6153846153846154,-1.5251020481904443,-0.7893732480208987,0.0008427341512953629,0.006522615411802021,-0.07772507221451753,-0.06476276946217992
0.6220735785953178,-1.5156211649202602,-0.6959370623920745,0.0008856817581499901,0.00568906369400692,-0.07262823576949702,-0.062227547458842146
0.6287625418060201,-1.507237311118658,-0.5676285762751002,0.0008776084224942326,0.004782787650337842,-0.0679688883559452,-0.05968097932933707
0.6354515050167224,-1.498853457317056,-0.4393200901581259,0.0008695350868384752,0.0038765116066687643,-0.06330954094239338,-0.05713441119983199
0.6421404682274248,-1.4891091994817058,-0.32635190763874,0.0007004452541684271,0.002488566508769931,-0.05783119773295527,-0.05366500532504844
0.6488294314381271,-1.4793130374352805,-0.21396901179605457,0.0005252120743454416,0.0010822440379445347,-0.05232160694588242,-0.050160389936083405
0.6555183946488294,-1.4680602101100546,-0.12320981262350386,0.00016133299449275928,-0.0009525150463172343,-0.04636298901484381,-0.04604480158443665
0.6622073578595318,-1.4563528742426979,-0.026865033969649676,-0.0002875489457328763,-0.003013573799046526,-0.040492637796248995,-0.04187170907333195
0.6688963210702341,-1.4412344343255605,0.22501899700740988,-0.0016152209222152765,-0.0037077967231168023,-0.03738870526955573,-0.03849357581039956
0.6755852842809364,-1.4201443530456888,0.4675034686345868,-0.001988550990163822,-0.0047896196297268715,-0.036016740162113155,-0.03867608743375703
0.6822742474916388,-1.396363776552609,0.7347686391079468,-0.0019969239869924724,-0.0063904065598476495,-0.03516090026923873,-0.04100130843639777
0.6889632107023411,-1.3725928707375428,1.0512977658150593,-0.003168530527616364,-0.008368225680463665,-0.028385720240872114,-0.046066561095855975
0.6956521739130435,-1.349163462658224,1.4259136285575595,0.0015153417243402906,-0.013396817824924962,-0.05062452039157686,-0.04118310042778346
0.7023411371237458,-1.3272555361028928,1.8312586546650382,0.003509426598232247,-0.01571748558795883,-0.044113672451235084,-0.03821950973402428
0.7090301003344481,-1.307048917097315,2.2094793919687215,0.005579115009626322,-0.017775932106483955,-0.032570448181437145,-0.0321648555506474
0.7157190635451505,-1.2852664748586613,2.6188566814449783,0.007688043699107653,-0.019789417233353222,-0.019949373990450586,-0.024295952524968606
0.7224080267558528,-1.2644222140123336,2.9983568328060346,0.009279981375845466,-0.021043297764648472,-0.008274984108441408,-0.016024240516332347
0.7290969899665551,-1.2408453374728021,3.212670558121092,0.010184995245222123,-0.02124496705323297,0.0034995001950622047,-0.006725497639896702
0.7357859531772575,-1.2164609854847803,3.3485469727666777,0.00997115238303747,-0.020088720846430968,0.013197080135642702,0.0015924235326288476
0.7424749163879598,-1.191714829949375,3.4337568944731727,0.008715101884396404,-0.017855717617297512,0.020135229332866912,0.007855482634169329
0.7491638795986622,-1.1668956520112923,3.4817277431228977,0.006753542464876403,-0.01507166505937085,0.0243510873861644,0.011715481552157337
0.7558528428093646,-1.1422615121879478,3.4985153834515175,0.0045144921513734304,-0.01228336121048911,0.0262632793641058,0.013422785637334402
0.7625418060200669,-1.1178730917779414,3.4902923572596967,0.0023295219935637514,-0.009791282059193898,0.026672691779560755,0.01380470018796739
0.7692307692307693,-1.093903130284853,3.4591768588022775,0.00036487970237893564,-0.0077045524935407134,0.025964959583524364,0.013355774428808347
0.7759197324414716,-1.0704886189658012,3.4047811816485796,-0.0012984636428413185,-0.006027887802627475,0.024451244563762402,0.012457264630376457
0.782608695652174,-1.0478493109312172,3.3237802893050348,-0.0026265697742403407,-0.004721456127322878,0.022402668004699006,0.011379482216543897
0.7892976588628763,-1.0262525218695084,3.209977472096171,-0.0036174620341627777,-0.0037288529978494944,0.020066858587118045,0.010301635048033232
0.7959866220735786,-1.006521507988191,3.042420819627324,-0.004281419152422067,-0.0030101444111604748,0.017740476286833073,0.009360708121599498
0.802675585284281,-0.9885938794573716,2.826763745324551,-0.0046910202746837425,-0.0024893664546125206,0.015568316032535515,0.008587150693065778
0.8093645484949833,-0.9692206574193291,2.6634414516354123,-0.004946112394529114,-0.0020455711267975225,0.013241824030846172,0.00786137282944717
0.8160535117056856,-0.9478885871685799,2.563967789982876,-0.005008194635812619,-0.0016866058771659758,0.01078091507706007,0.0072176227013795785
0.822742474916388,-0.9254174686224773,2.4959126969039276,-0.004838600089697,-0.0014436623573389907,0.008376385942061849,0.006735034923831796
0.8294314381270903,-0.902047263302188,2.4474611497322143,-0.004415311012839092,-0.0013324729525753427,0.00613066132155261,0.006465326317547619
0.8361204013377926,-0.877883308372088,2.414200684048067,-0.003679961692808827,-0.0013904607410826467,0.004104613749021559,0.006486861796831403
0.842809364548495,-0.852973536179247,2.3917651446841854,-0.0023538996551398113,-0.001771996623211361,0.0023291720793207175,0.007081860711484647
0.8494983277591973,-0.8274034997919394,2.3770905117863914,0.0011102784726424082,-0.003337082604495792,0.0005847664415954716,0.00967986898089871
0.8561872909698997,-0.8012164276021311,2.3685674699627595,-0.003958099232860248,0.00016944869625747701,0.00027686690358287363,0.004683317569780762
0.862876254180602,-0.7744026311156347,2.3650754135175514,-0.006254828232088947,0.001996362427023263,-0.0002541696103962708,0.002157021364863046
0.8695652173913043,-0.7469716822311934,2.366195542159397,-0.005774780288947394,0.0021636903991681354,-0.0009583745069754384,0.00217576607836629
0.8762541806020067,-0.7189308739361187,2.370606786375949,-0.005331367178979231,0.002330060784194665,-0.0015148100381424442,0.002223325830401894
0.882943143812709,-0.6902782212374908,2.3782352732650227,-0.00494255994312592,0.0024981373582163417,-0.0019518221821438132,0.002295356083549181
