# n,energy,berry,bcd_x,bcd_y,qmd_x,qmd_y
0.00000016666666666666665,-3.217272574053398,0.000000017886886757314142,0,0,0,0
0.006688963210702341,-3.169418780016042,0.0007431917166283682,-0.0000000000000000004628590783728626,0.000000000000000002777888447615881,0.00000000000000000111141540258628,-0.00000000000000000060573706747428
0.013377926421404682,-3.1222240208532583,0.0015463084685549823,-0.00000000000000000034459985478344283,0.00000000000000000590358130595781,0.0000000000000000014021825258064461,-0.0000000000000000010241634541034016
0.020066889632107024,-3.075734071856337,0.002429142827188646,-0.0000000000000000033384240528627184,0.000000000000000007272599518619065,-0.0000000000000000009841954528823267,-0.0000000000000000024263617924558844
0.026755852842809364,-3.029924788862315,0.003414454841378787,0.000000000000000008524915894291363,0.000000000000000010843791523768502,0.000000000000000004632855179343669,0.000000000000000003245870182230153
0.033444816053511704,-2.984745725848872,0.004531866648424014,0.000000000000000009877059275881106,0.000000000000000016444742066983795,0.000000000000000006462930525052458,0.000000000000000006454660114754911
0.04013377926421405,-2.940304954910775,0.005811365453071698,0.000000000000000011835087993474751,0.00000000000000002992046568913288,0.000000000000000017425344481837957,0.000000000000000005291521630462431
0.046822742474916385,-2.896518771317123,0.007287093115759635,-0.00005113443481580274,0.000028425681658035268,0.00005916283493163532,-0.00006370819291434625
0.05351170568561873,-2.8533904819378058,0.00899952052770051,-0.00008815693405950788,0.000038136088388434445,0.0001206370175802759,-0.0000793079082182087
0.06020066889632107,-2.8165719964546048,0.010567416304475866,-0.00009412087644807793,0.000030944397542430894,0.0001347132805942897,-0.00005519661586963536
0.06688963210702341,-2.7942223166321427,0.011253083955426948,-0.00010521590823392775,0.00002991620051535702,0.00014554498723309375,-0.000047038106466693215
0.07357859531772576,-2.7720524337781183,0.012027111979433416,-0.00011910264399819787,0.000029545972263293756,0.00015326365659239832,-0.00003967737773181432
0.0802675585284281,-2.7500621592881513,0.012897472944265024,-0.00013549961507979918,0.000029459282291872888,0.0001551344156354705,-0.00003252237882301748
0.08695652173913043,-2.7282602074090465,0.013877054627856582,-0.00015427129250769302,0.000029428137329315417,0.00014765266856891078,-0.000025511064296795583
0.09364548494983277,-2.7066281901696945,0.014973081249474012,-0.00017544743523031285,0.000029324640187426192,0.00012635073147248955,-0.000018993885991353335
0.10033444816053512,-2.6851824949368397,0.016205317129223237,-0.00019906263142799936,0.000029033290821582204,0.00008535596657744113,-0.000013760013493808627
0.10702341137123746,-2.6639236474899493,0.01758405658189921,-0.00022510310011384526,0.000028454652657664975,0.00001694669735190298,-0.000011103523721810408
0.11371237458193979,-2.6428463786968694,0.019129461234336387,-0.0002535150244226669,0.000027490872285852313,-0.00008893977044401854,-0.000013000300333087234
0.12040133779264214,-2.621972524261662,0.020866951639687298,-0.000284126382134359,0.000026048351995021257,-0.0002450615896397138,-0.000022308302943434218
0.12709030100334448,-2.601302227060662,0.022826027187864886,-0.0003166808549551974,0.000024035174452345744,-0.0004677157468633809,-0.00004302484494103996
0.13377926421404682,-2.5808243715862713,0.025040391615812584,-0.00035076793326827905,0.000021355544147356986,-0.000777534666981318,-0.0000806414237762291
0.14046822742474915,-2.5605460793325454,0.027555703069946844,-0.00038577395089042956,0.000017919220022548333,-0.0011999337658852344,-0.00014249280226770626
0.14715719063545152,-2.540498776769435,0.030432808883419163,-0.0004208323822653784,0.000013659635911301834,-0.0017649391067599048,-0.00023798530088739263
0.15384615384615385,-2.520714910041427,0.0337573265066462,-0.0004547451918474236,0.000008535198494948538,-0.00250698645650941,-0.00037878714655808045
0.1605351170568562,-2.5011557174550867,0.03764360029475806,-0.0004665171843587676,-0.000010125427906008997,-0.0034617093443618163,-0.0006225915436767613
0.16722408026755853,-2.481885995481581,0.042255779391780476,-0.00039772705105928214,-0.00007934056413079474,-0.00465306716653623,-0.0011113453667328332
0.17391304347826086,-2.462918687195525,0.04782474665841243,-0.00044449233927847245,-0.00007878654881883895,-0.006230576462314565,-0.0014605229462883367
0.1806020066889632,-2.4444341352918655,0.05503336323919557,-0.00045900749660946215,-0.00009214541123233946,-0.008192664819959082,-0.0019804977223074273
0.18729096989966554,-2.426474639457808,0.06466578890453334,-0.0004580218616403393,-0.00010911411729717455,-0.010550910123675376,-0.002649213225799279
0.1939799331103679,-2.409571487670266,0.07908908667814644,-0.0004432213079817026,-0.00012743498542276265,-0.01323686424575958,-0.003451097350891801
0.20066889632107024,-2.393431770346554,0.097795452554041,-0.00041605998085466147,-0.00014631707932865148,-0.01625058850805482,-0.004388584729433797
0.20735785953177258,-2.3775122775364044,0.11895850539837498,-0.00037620758962704086,-0.0001658146152304996,-0.019673895074361222,-0.005490875155610379
0.2140468227424749,-2.3586457913035437,0.13015601576232835,-0.0003061095082154037,-0.00018935183309587756,-0.024510860788542914,-0.007120616661121485
0.22073578595317725,-2.3382321144048634,0.13638680593663083,-0.00020205544293281594,-0.0002135890480790534,-0.030695842548689137,-0.009305229399837273
0.22742474916387959,-2.3165719666823033,0.138593563696319,-0.00006123078101456228,-0.00023585155417211957,-0.038290816112382976,-0.012114260575306634
0.23411371237458195,-2.2938167950254655,0.13676457544172727,0.00011894311995984898,-0.00025212999871108104,-0.04740535946894096,-0.015656288039905257
0.2408026755852843,-2.2700193751276494,0.1309536335483542,0.00033355183998955574,-0.00025770609811319033,-0.05798039565860751,-0.019975645897900025
0.24749163879598662,-2.2453391740673063,0.12122518214276883,0.0005683843639155041,-0.000248473836266367,-0.06973598637649003,-0.025005245347784207
0.25418060200668896,-2.222390504193468,0.10175596565074028,0.0007817318757810044,-0.00022504305774999995,-0.0811200472698484,-0.030070885355772535
0.2608695652173913,-2.2033325936388226,0.073311721706101,0.0009437048280789515,-0.0001950160793371306,-0.0908150741390369,-0.03450123274617893
0.26755852842809363,-2.1860710732431685,0.04505377857497173,0.0010719507916506427,-0.0001608464633523553,-0.09981334734384804,-0.03866710585099905
0.27424749163879597,-2.169020209138287,0.020727047014721493,0.0011768069614532602,-0.00012195650387649017,-0.10900851133992955,-0.04293395530542895
0.2809364548494983,-2.1522462369922732,0.00003235545219135508,0.0012457128277854538,-0.00008055157791005292,-0.11889564098352869,-0.04742320530763475
0.28762541806020064,-2.135742841648537,-0.01858121736041905,0.001725590364053702,-0.00016716640845323668,-0.15161781546712105,-0.05668863958087915
0.29431438127090304,-2.1195267256315664,-0.03546309387828914,0.0020010056048352944,-0.00018277321422787947,-0.18316570446103556,-0.06702409317634286
0.3010033444816054,-2.103617107926724,-0.050943336872351676,0.0019415160855512472,-0.0001117091285367715,-0.208019802860692,-0.0772427568627036
0.3076923076923077,-2.088130875827267,-0.06524662899101116,0.0019113972084338117,-0.00016388354269728411,-0.2406038732083405,-0.08871071613961334
0.31438127090301005,-2.0732894441424876,-0.07916530944230327,0.0017875669725047057,-0.0002413077462737456,-0.29235718678283173,-0.09935552315676624
0.3210702341137124,-2.059392417164034,-0.0943406868291403,0.0013882005475293858,-0.00019443204451723313,-0.43734710944755867,-0.043496332374546635
0.3277591973244147,-2.046697450967051,-0.11149926601259444,0.0006089761024022275,0.00004465273855122973,-0.7147462138980251,0.11077521073611218
0.33444816053511706,-2.0329130450098596,-0.11480051904303842,0.00034432718084535135,-0.000012808686644814687,-0.152151094186613,-0.14050541787879492
0.3411371237458194,-2.0186358418642487,-0.10758815887016343,0.00044543512506967813,-0.00019854785320076143,0.3441053955783334,-0.3574336273577254
0.34782608695652173,-2.003999222435697,-0.08431514807389519,0.0010762176579006224,-0.0004662565357369614,-0.09030979306564119,-0.11874128343404294
0.35451505016722407,-1.9894566162023408,-0.06935367155480049,0.0011388616112660143,0.0004879851793868603,-0.10830920288683676,-0.05264050529043014
0.3612040133779264,-1.9742184666851657,-0.06178893928348104,0.001174029284168117,0.0015062214612445203,-0.06385439717548645,-0.028442900810847688
0.36789297658862874,-1.9577759022447214,-0.06329761106232204,0.0013277691834534505,0.002248710153817904,-0.048630202484540086,-0.018252687186314055
0.3745819397993311,-1.9404548175898682,-0.06640184743492261,0.0014186054701520938,0.0029014558974067186,-0.04465074553808887,-0.01588831318607643
0.38127090301003347,-1.9223805036505919,-0.06888941838870821,0.0014883708254686645,0.003515955805355391,-0.043924770094807324,-0.016078539046911824
0.3879598662207358,-1.9037087137922921,-0.06976045438449792,0.001553463069687163,0.004104397520356055,-0.04458093259640924,-0.017527250515958766
0.39464882943143814,-1.8845446470682217,-0.06809203942565756,0.0016220551269493706,0.004664253332065828,-0.046048926155677475,-0.01982522367943257
0.4013377926421405,-1.864846437309938,-0.06274229841310563,0.0017004550074791718,0.005191959782746844,-0.048125418925072286,-0.02280063619446482
0.4080267558528428,-1.8447627668191784,-0.052575339437720164,0.0017930703986769603,0.005674177459970394,-0.05082596336867829,-0.02640166698902289
0.41471571906354515,-1.825532819877415,-0.03498499339036193,0.0018990024757166478,0.006076784933097534,-0.054128161847784385,-0.03042984327702175
0.4214046822742475,-1.808672886135917,-0.010173551783778769,0.0020129560067566445,0.006383057972392088,-0.05780764926978767,-0.034513870948729146
0.4280936454849498,-1.7946651068286896,0.018703827459209985,0.002131562364517446,0.006604386458380313,-0.061662955892151095,-0.03842870736984628
0.43478260869565216,-1.7809393772999984,0.05131542412654147,0.0023097326784923965,0.006819304121484483,-0.06683640913072435,-0.043129535969479826
0.4414715719063545,-1.767405023555534,0.087179726921799,0.002457924996797214,0.007157569947382312,-0.07114377201808189,-0.04592387822582228
0.44816053511705684,-1.754198631292746,0.12925655315294135,0.002492244620828296,0.0078205959508178,-0.07240385648625423,-0.04328487052354029
0.45484949832775917,-1.7415017559147699,0.181185647312155,0.0026103852248002923,0.008077834527809441,-0.07837660208832614,-0.04542247759924816
0.46153846153846156,-1.7290445371964078,0.23770908298121013,0.002764699273585512,0.00815032813742704,-0.08641485540961966,-0.04968283489827007
0.4682274247491639,-1.7177592712222969,0.31279552002903166,0.002776673960070897,0.007920187110167428,-0.08971976233674449,-0.05215552413794988
0.47491638795986624,-1.7067378388574501,0.39371857215637474,0.002786363601123918,0.007672615118723804,-0.09261311937399298,-0.05443266185794031
0.4816053511705686,-1.697184064677997,0.5071096480519509,0.002783341951745986,0.007328077856876207,-0.09321709953367381,-0.055621982186740096
0.4882943143812709,-1.6876302904985439,0.6205007239475272,0.002780320302368055,0.006983540595028609,-0.09382107969335465,-0.05681130251553989
0.49498327759197325,-1.6803219421114661,0.7990515721082906,0.0027903806556775507,0.0066326386532034685,-0.0931563422079223,-0.05716585724540517
0.5016722408026756,-1.6731107259400604,0.9804210897055115,0.0028010069078516506,0.006281461389223233,-0.09243672276809604,-0.05748430183862439
0.5083612040133779,-1.6656484080169802,1.1537154383013726,0.002813423023865917,0.005910087029029379,-0.09161486648660717,-0.05776942456599166
0.5150501672240803,-1.6536112431508017,1.1798875068871655,0.0028584488411791263,0.005170739832102346,-0.08893034736253257,-0.057447453017375215
0.5217391304347826,-1.6412699951827636,1.1919353899001437,0.0029101228142021504,0.00435647621255292,-0.08579434591959754,-0.05686233405209078
0.5284280936454849,-1.6282544579598714,1.1726635892244195,0.0029765387440531424,0.00337608912715647,-0.08165720474050907,-0.055693698691397064
0.5351170568561873,-1.6151106038098937,1.1355676565624655,0.003038023703229714,0.002244456494809377,-0.07683495091381586,-0.05401738548874354
0.5418060200668896,-1.6019125770790796,1.0880397448646515,0.003092323887625184,0.0010223106776400734,-0.07164534915417135,-0.05205858294850745
0.5484949832775919,-1.5887200618634605,1.0183389177875193,0.003106569308735918,-0.00040371046796278684,-0.0658688426312464,-0.04958376333663396
0.5551839464882943,-1.5756154874660657,0.934480026533669,0.0030810526442950855,-0.0019815854701224775,-0.059865532945863054,-0.04695922193757215
0.5618729096989966,-1.5625908814463347,0.8377465970854164,0.003019378601081769,-0.003697547731373924,-0.05365598136602048,-0.044198532062021595
0.568561872909699,-1.5498656354620972,0.7142382916915975,0.00506480196380178,-0.007844693677459732,-0.04786695941737167,-0.050270797788467034
0.5752508361204013,-1.5372700071537457,0.5816861976050707,0.005537071120410039,-0.010533075658968322,-0.041792096454205105,-0.05061772859481506
0.5819397993311036,-1.5249579970372633,0.43088088655732415,0.0010698973827312167,-0.008516691853965568,-0.034809914746422956,-0.03268436429950809
0.5886287625418061,-1.5118683016216592,0.3663461202824221,-0.0006072685726336343,-0.008091230536662306,-0.02860061656627178,-0.023850101194658177
0.5953177257525084,-1.4982341761884255,0.36877493158731495,-0.00010122675248756353,-0.008903685532207831,-0.022578020943123125,-0.021852895122543754
0.6020066889632107,-1.4865525647901516,0.35820448917335723,0.0005296724716375366,-0.00957049967573252,-0.0036311959793926644,-0.011488767543136881
0.6086956521739131,-1.4759020575547497,0.33382936110173633,0.00117659711516074,-0.010150724229303949,0.01168350079831355,-0.0013830527943387528
0.6153846153846154,-1.4685705444578019,0.2650186925378812,0.0018751055607514801,-0.0104522278234859,0.015306835448300957,0.00789086367357251
0.6220735785953178,-1.461239031360854,0.1962080239740261,0.0025736140063422203,-0.010753731417667852,0.018930170098288363,0.017164780141483774
0.6287625418060201,-1.452539960869123,0.16013268690904667,0.005259323081591527,-0.012112334225235903,-1.3396512890530898,1.9180810571553488
0.6354515050167224,-1.441592640430566,0.17787388989015898,0.011211969052510026,-0.015208797000766671,-4.937683075417655,6.928837442331895
0.6421404682274248,-1.4293340952382525,0.22234458477743713,0.012093510947265847,-0.01578536731342037,-4.638026494204059,6.706941588100195
0.6488294314381271,-1.4155586931162443,0.2977366109688556,0.0071086753677595494,-0.013446864269312875,0.1705715123561582,0.43178538525815924
0.6555183946488294,-1.400956055224975,0.41447884725500667,0.007363288315102504,-0.013808770030388686,0.3310286805594629,0.09460986171317952
0.6622073578595318,-1.3862025241147269,0.5616557623894802,0.00796249051379292,-0.01427870580334408,0.25615436540809505,0.10423674796891262
0.6688963210702341,-1.3714459104834782,0.7468068203898989,0.00855121938530877,-0.014658277206971097,0.2307809169562452,0.09708503659334085
0.6755852842809364,-1.3575181477975669,1.0339137921965038,0.008851064065855478,-0.014722080326460317,0.22021455417614208,0.09271526223410485
0.6822742474916388,-1.3433088591008846,1.3056193471964819,0.008928503703583264,-0.014561323784305365,0.21221427258391276,0.0892772402639892
0.6889632107023411,-1.3286980573521192,1.5544830683563557,0.008791385345277663,-0.014192971939722902,0.20606669980615078,0.08651659250313429
0.6956521739130435,-1.3127955098026205,1.7272947727305528,0.00826446324293583,-0.013486596209463042,0.20058949187552846,0.08402792711864293
0.7023411371237458,-1.2961452614146889,1.8763090463587924,0.007351979979764433,-0.01253864945595671,0.194691133579244,0.08126253351267974
0.7090301003344481,-1.278900488661842,2.0138217037679054,0.006112384302875023,-0.011467001646274578,0.18793284763865892,0.07796738188021304
0.7157190635451505,-1.2611032714529973,2.1465591858246915,0.004568671121225904,-0.010382851268024922,0.1799223389016887,0.0739008901926535
0.7224080267558528,-1.2427960128534867,2.2810118737051237,0.002773875422302891,-0.009449428584117967,0.17042867796450512,0.06883660613654224
0.7290969899665551,-1.2239737604332375,2.4233064964910667,0.0007680141289199395,-0.008890931607675635,0.15987461107365453,0.06235299124365526
0.7357859531772575,-1.2046038047294247,2.578853835214068,-0.0014800448913823586,-0.009084404060219087,0.15020268536609507,0.05315197003216053
0.7424749163879598,-1.1847627547440889,2.7580633557733556,-0.0004142815298646158,-0.011501710858799447,0.11463536653374246,0.05233035316461426
0.7491638795986622,-1.1643988672603487,2.9715048326388276,-0.001957266638851762,-0.010343139809502787,0.11059428653684333,0.05000906249405892
0.7558528428093646,-1.1426965138453689,3.1968623448660676,-0.0036804308880940585,-0.009105766551743862,0.10613418999560227,0.04691113865538426
0.7625418060200669,-1.114048344458733,3.1626862906091713,-0.005845435400531502,-0.0076399535218221095,0.0979526408698907,0.04190001616915383
0.7692307692307693,-1.0859144852606755,3.1027204524517855,-0.007728851564678939,-0.00633878153668425,0.0876980804261248,0.036314181283559795
0.7759197324414716,-1.0585661692265182,3.0196702688520314,-0.009192102938031375,-0.005196263919332783,0.07599392278298074,0.030575996721669448
0.782608695652174,-1.0323003077501756,2.904834759994452,-0.010051574268066516,-0.004241004545913648,0.06373080343179477,0.025202326719590953
0.7892976588628763,-1.0072211526186141,2.753934540137574,-0.010386568803781379,-0.0034570655354140556,0.05205993354525953,0.020525323730986693
0.7959866220735786,-0.983811685460036,2.5483409579180964,-0.010265512161796842,-0.0028516576588741563,0.041781532248649556,0.016753884567861834
0.802675585284281,-0.9630839053255532,2.2476661674454297,-0.00983135980048753,-0.002427230983861211,0.03353712911989503,0.013986845425437187
0.8093645484949833,-0.9422860153947036,1.9861276534665364,-0.009127503663586247,-0.002111151846460236,0.026251677000259554,0.011767053833999992
0.8160535117056856,-0.9195041458982091,1.8448691239555288,-0.008100624860802274,-0.0018929743254172495,0.019475270148629195,0.009948734080377407
0.822742474916388,-0.8955792761493013,1.7595073831221169,-0.006787077785944777,-0.0018127910313927428,0.013670298093402266,0.008671001213260586
0.8294314381270903,-0.8708214854026955,1.7041543016293768,-0.0052026573884095435,-0.0019057172707737952,0.008929412082917261,0.007965672374413845
0.8361204013377926,-0.8453112050669837,1.669159542619352,-0.003229810022105058,-0.0022742129551335285,0.005277483949722063,0.007969836691194769
0.842809364548495,-0.8191084096073619,1.6460465911289937,-0.0004290713345497187,-0.003179067558878149,0.002414373432457744,0.009017721021806068
0.8494983277591973,-0.7923023285276342,1.6315174763783045,0.006223350405817096,-0.006343639544205207,-0.0002514589495479834,0.013741285938161884
0.8561872909698997,-0.7649846088696897,1.6230737260946035,-0.006480093786443094,0.0017308065161212981,0.00036567596246451335,0.0018743171457708042
0.862876254180602,-0.7369440907310408,1.6204300219894168,-0.005689227872098197,0.0018839971004006245,-0.0005396208116948723,0.001812467575846831
0.8695652173913043,-0.7083426163535022,1.6215609026201767,-0.005015324515705081,0.0020313798555097635,-0.001169359399688745,0.0018053889984108052
0.8762541806020067,-0.6791596487237602,1.626009471181822,-0.004466458689702707,0.0021769054742956174,-0.0015995923012213236,0.001836368312084306
0.882943143812709,-0.6493478916379641,1.6340507814854335,-0.004055974033452078,0.0023238968679312353,-0.00188966925343877,0.001896380892177957
0.8896321070234113,-0.6189930799022013,1.644514319145793,-0.0037616455635085034,0.0024758901733375974,-0.002111944679615598,0.001976690330427098
