# n,energy,berry,bcd_x,bcd_y,qmd_x,qmd_y
0.0000015,-3.249995616726221,-0.00000000000000002215550892191847,0,0,0,0
0.006688963210702341,-3.2018931956692414,-0.000004665142064314175,0.000000000000000000006750177978445213,-0.0000000000000000000012744138308116196,0.0000000000000000000014346090259069285,-0.000000000000000000004257965630728109
0.013377926421404682,-3.1545859628964803,-0.0000352951999804911,0.0000000000000000001108093613477641,-0.000000000000000000021681236373164522,0.00000000000000000000181156707646686,-0.00000000000000000007469797655005936
0.020066889632107024,-3.108048826948053,-0.00011946416817994456,0.0000000000000000001449557323893046,-0.00000000000000000026187307539535465,0.00000000000000000009672053896795084,0.00000000000000000010446301518328241
0.026755852842809364,-3.062313878026849,-0.00028795740990454285,-0.0000000000000000007880858642144997,-0.0000000000000000006213972617968931,0.0000000000000000008024054641828186,0.00000000000000000019649740486083804
0.033444816053511704,-3.0173131282938503,-0.0005755351302345693,0.0000000000000000004937772079774944,0.0000000000000000032665605616108895,-0.000000000000000000280257022241589,0.0000000000000000009047910451656186
0.04013377926421405,-2.9732039067417237,-0.0010241053205093718,-0.0000000000000000006391072570031275,0.000000000000000006041104544442064,-0.0000000000000000010408612045572102,0.00000000000000000173839424076584
0.046822742474916385,-2.929868813539256,-0.0016737711782329541,0.00000000000000000511019560681392,0.000000000000000001123397241794671,-0.0000000000000000011757445660623787,-0.0000000000000000004767320592789896
0.05351170568561873,-2.8872589927995964,-0.002573843282195052,0.000000000000000005915534949710563,-0.000000000000000008684791560034807,0.0000000000000000008559482736015594,0.0000000000000000013746535443295633
0.06020066889632107,-2.8453146653897465,-0.003774118147398547,-0.000000000000000008866177257008429,0.000000000000000021936307654780097,-0.0000000000000000013101782922806276,0.00000000000000000021232913343637276
0.06688963210702341,-2.80409344915574,-0.0053384584800614315,0.000000000000000004745624999519565,0.000000000000000004458893375235401,-0.0000000000000000005733453316155983,-0.00000000000000000039844570320061133
0.07357859531772576,-2.7637666588146548,-0.007333919271689809,0.000000000000000010218667391042679,-0.0000000000000000019655663863714667,-0.00000000000000000529829241877225,-0.000000000000000001085074181245051
0.0802675585284281,-2.735659805376309,-0.009054430276901226,-0.000000000000000013916859512306693,0.00000000000000006200610123017461,0.000000000000000004286335202784133,0.00000000000000001303011375501788
0.08695652173913043,-2.714013775745495,-0.010583133215733209,-0.00000000000000002084669181135115,0.00000000000000006381689422320991,-0.0000000000000000006890063914858121,0.000000000000000019894825885914772
0.09364548494983277,-2.6925444355633537,-0.012289855723257605,-0.000000000000000026197108281113776,-0.00000000000000000449937326626581,-0.000000000000000003824314724159014,0.000000000000000033048504850780914
0.10033444816053512,-2.671271462915695,-0.014202048401507008,-0.0000000000000000465450564552149,-0.000000000000000054458628771902534,0.000000000000000013169668111407003,0.00000000000000002953060008999455
0.10702341137123746,-2.6502132804404903,-0.01633683180648622,-0.00000000000000002097968908703038,-0.00000000000000009617774761682498,0.00000000000000000938227753382078,-0.000000000000000005214936885032147
0.11371237458193979,-2.6293694405893344,-0.018692943177155412,-0.000000000000000028928573554150816,-0.00000000000000007411816434774499,0.0000000000000000032155123558699392,0.0000000000000000003516786587252328
0.12040133779264214,-2.6087700325212717,-0.021304474289471673,-0.00000000000000006586522650549799,0.000000000000000020741347351658722,-0.000000000000000011334974838506055,0.000000000000000023541859502060314
0.12709030100334448,-2.588306493829447,-0.02418970475835968,0.00000000000000005844749228978215,0.000000000000000022766609110299355,-0.000000000000000021910648916583864,-0.000000000000000015768014188097483
0.13377926421404682,-2.567991094050557,-0.0273720499973794,0.00000000000000003938639132362939,0.00000000000000001738958318654576,-0.000000000000000015505858966054798,0.000000000000000005754216576204908
0.14046822742474915,-2.547897771590647,-0.030887346527887084,0.00000000000000013560973123145573,0.0000000000000000834447393238371,0.00000000000000000948586459554656,-0.000000000000000031644133535894463
0.14715719063545152,-2.528048496171943,-0.03471481005791432,-0.0000000000000000013800396508204286,0.0000000000000000030729454209245175,0.00000000000000005600357873119427,-0.00000000000000003669134663223162
0.15384615384615385,-2.5083672745575947,-0.03894189925011518,-0.000000000000000045332185508265124,-0.000000000000000049669773809499586,0.00000000000000005433648585592775,-0.00000000000000009362577859419837
0.1605351170568562,-2.488847901865396,-0.043568340376633735,-0.0000000000000002067479316177173,-0.00000000000000014569506655772072,0.0000000000000000571481902330777,-0.000000000000000021482842202309372
0.16722408026755853,-2.46956578372541,-0.04867293842438671,0.0000000000000000645514999273792,-0.00000000000000009162708360524132,-0.00000000000000006838007146742971,0.000000000000000033646866885168854
0.17391304347826086,-2.4505400491206353,-0.054260937124943995,-0.000000000000000040648880278936196,0.000000000000000013016321199770647,0.000000000000000019931893724218832,0.00000000000000002348660038293182
0.1806020066889632,-2.4316111137587875,-0.0604166691775229,-0.000000000000000033077637083967694,0.00000000000000013580814869113049,0.000000000000000025919872375293388,0.00000000000000019124113137862182
0.18729096989966554,-2.4129330708704826,-0.0671471272836585,-0.00000000000000008694524557324284,-0.00000000000000014931408531383027,-0.00000000000000006981012829360804,0.0000000000000002547978766043559
0.1939799331103679,-2.394476513741666,-0.0745024424651235,-0.0000000000000000995856602840847,-0.0000000000000003669867269722186,-0.0000000000000001373790116202663,0.00000000000000018822056442482778
0.20066889632107024,-2.3761922515759344,-0.08254323245357817,-0.000000000000000016023231543533633,0.000000000000000020871842135825416,-0.00000000000000008636271748940581,0.00000000000000011837192097348906
0.20735785953177258,-2.3581385901398164,-0.09129535115233486,0.000000000000000014275039625416937,0.0000000000000006987880719755587,0.000000000000000013234748910518092,0.00000000000000007868162764561914
0.2140468227424749,-2.340321038580623,-0.10088366193858139,0.00000000000000028604535001852066,0.0000000000000001364321119953597,-0.00000000000000018183218958351594,-0.0000000000000000238675308815358
0.22073578595317725,-2.32274797784573,-0.1116303310099039,-0.00000000000000011610285192800557,-0.0000000000000004101661743763058,-0.000000000000000016397238881613785,0.0000000000000002372057594884458
0.22742474916387959,-2.305292907304965,-0.12337973224767954,-0.00000000000000019759159173718448,-0.00000000000000006594532183046187,0.00000000000000022443618937263366,0.00000000000000014144043252539531
0.23411371237458195,-2.2881446284052758,-0.13624168442241666,-0.000000000000000479750506464333,0.00000000000000008105480174346509,0.00000000000000023036973520213607,0.000000000000000011694947095097815
0.2408026755852843,-2.2712994191390576,-0.1502847461123723,-0.0000000000000007356968019256811,-0.000000000000000087552776118603,0.00000000000000005327086729460896,0.00000000000000008521783245761776
0.24749163879598662,-2.254630995082484,-0.16559407013338007,-0.00000000000000025846666928419875,0.000000000000000007069370298765517,-0.000000000000000025551051505354514,0.0000000000000004637952066170958
0.25418060200668896,-2.238210959306456,-0.18306238419064216,-0.0000000000000007255552304558317,-0.00000000000000018337217859797914,0.00000000000000035432304615669565,0.000000000000000023386356277713016
0.2608695652173913,-2.222139067962547,-0.2023383943802909,-0.00000000000000011020234135765552,0.0000000000000004876486575333468,0.000000000000000025912032067440685,-0.00000000000000011070829089254509
0.26755852842809363,-2.206309050389641,-0.22356624037329081,0.00000000000000021723094359036967,0.0000000000000004288576819765999,-0.00000000000000013165329747956382,0.0000000000000000022724067311575455
0.27424749163879597,-2.1906667811040617,-0.24688349555440475,-0.0000000000000004288668415064181,-0.000000000000001130795558036859,0.00000000000000033418757771849643,0.00000000000000029076757173503594
0.2809364548494983,-2.1754507930763154,-0.2736712484695221,0.0000000000000006215516536867599,-0.0000000000000006698394089401068,-0.000000000000000040445441048861107,0.00000000000000009011180594066165
0.28762541806020064,-2.160560778334198,-0.3037864230875069,0.0000000000000007271481163209456,0.000000000000000024825490935937685,-0.00000000000000024255923930062267,0.000000000000000026374727224082063
0.29431438127090304,-2.145971669307828,-0.3370959752774848,0.0000000000000004385720683651229,0.0000000000000004527873374112773,-0.0000000000000002803632117333499,-0.000000000000000021723176975773498
0.3010033444816054,-2.1318503403051117,-0.37562668351337036,0.0000000000000005305189814121675,-0.0000000000000005363952532494862,-0.000000000000000052225842643171965,-0.0000000000000002756540320148321
0.3076923076923077,-2.1183069134462396,-0.42111931644324174,0.00000000000000006309330235829228,0.000000000000000005564112418565578,0.00000000000000021938136307406025,-0.00000000000000012428299535089038
0.31438127090301005,-2.105141915848071,-0.47144969150860816,-0.0000000000000004932935160642302,0.0000000000000008766700148620406,0.0000000000000004084147641452216,0.00000000000000012211194581320352
0.3210702341137124,-2.0930125214862825,-0.5361836376759321,-0.00000000000000013475630695697539,-0.00000000000000016455101559876623,-0.00000000000000009231217087050487,-0.00000000000000008310197470387453
0.3277591973244147,-2.0824526364335,-0.626834851364802,0.00008571107486701278,-0.0000000000000007302007901822547,-0.00000000000000020479824870531898,-0.0001791402460613902
0.33444816053511706,-2.074444787711765,-0.7596277764388287,0.0003107891326363898,-0.0000000000000005225674016546064,0.00000000000000031399881847669213,-0.0006495641523579813
0.3411371237458194,-2.06643693899003,-0.8924207015128554,0.0005358671904057669,-0.0000000000000003149340131269579,0.0000000000000008327958856587034,-0.0011199880586545727
0.34782608695652173,-2.0574768859766177,-1.0135465120010816,0.0063401342005041,-0.0000000000000001202106660140735,0.0000000000000005473904537801717,-0.004414424616082739
0.35451505016722407,-2.0481767278095413,-1.13050510140691,0.014137157316137029,0.0000000000000000699015155563289,-0.00000000000000002525734500548892,-0.00871753259524152
0.3612040133779264,-2.0378120267169972,-1.2335510105986234,0.02396630277024727,-0.00000000000000013391047624867733,-0.00000000000000031047952788669543,-0.014311709414939493
0.36789297658862874,-2.026198840282537,-1.3202802669823015,0.03617870106637618,-0.0000000000000007997128157609303,-0.00000000000000025861181071467065,-0.021420038913930566
0.3745819397993311,-2.013859086946528,-1.3991198468125428,0.04818628990526867,-0.00000000000000009607281854591763,-0.00000000000000020148759984000028,-0.028273422390471245
0.38127090301003347,-2.001105445758879,-1.473465083077349,0.060077209314174304,0.0000000000000013876681514553997,-0.00000000000000014136903444531467,-0.03498157621053966
0.3879598662207358,-1.9875739593225548,-1.5399650683406128,0.06954708803246175,-0.0000000000000004446193531603316,0.00000000000000050371454395669,-0.037651644073895076
0.39464882943143814,-1.973832467699245,-1.6038399190957218,0.054329110173888015,-0.0000000000000010766429048773222,0.0000000000000007592809048348573,-0.028488391741682786
0.4013377926421405,-1.959820118973783,-1.6642663810001233,0.0043030712814851185,0.00000000000000009804371853710166,0.0000000000000004448902481559557,-0.002736923660987975
0.4080267558528428,-1.9453684499956807,-1.720698738242606,-0.0005308232240605549,0.0000000000000006600702050756426,0.0000000000000011183224802023816,-0.00025618027605148007
0.41471571906354515,-1.9307245340559482,-1.7750837122215934,-0.0005331138217345091,0.000000000000002430136982498702,-0.0000000000000005898526196503936,-0.00026427789445936914
0.4214046822742475,-1.9158941028749175,-1.8273745833093034,-0.0005369588990211608,0.0000000000000057408177152146835,-0.00000000000000528980860853122,-0.0002727483911978957
0.4280936454849498,-1.9008069814763613,-1.8759014076089384,-0.0005432499364356419,0.0000000000000051133251424034934,-0.0000000000000011847330082976272,-0.00028186659686617983
0.43478260869565216,-1.8855699944677462,-1.922696572488458,-0.0005502315223860539,0.000000000000002725212778285664,-0.0000000000000001715961517140896,-0.00029101267475157286
0.4414715719063545,-1.870203060307045,-1.9678595882120546,-0.0005580043054151374,0.00000000000000005434013656930719,-0.000000000000001093551970146171,-0.00030024165184035115
0.44816053511705684,-1.8547200813447353,-2.0112462475944577,-0.0005669532452551363,0.00000000000000016648860661473336,-0.0000000000000019232682932464787,-0.0003096879883706321
0.45484949832775917,-1.8390975705649186,-2.051569524691216,-0.0005769138141842367,0.0000000000000006466115705910167,-0.0000000000000006744877624328193,-0.0003192550578318098
0.46153846153846156,-1.8234171108971629,-2.0901239417206994,-0.000587391021948649,0.00000000000000363853765355448,-0.00000000000000017168116717352567,-0.00032878121972572405
0.4682274247491639,-1.8076893697245477,-2.1270126859765397,-0.0005983778851048358,0.0000000000000062999269829691166,-0.0000000000000005391777483899284,-0.00033826429510362975
0.47491638795986624,-1.7918955915860129,-2.1616774466075594,-0.0006102251164898795,-0.000000000000004879701219350099,-0.00000000000000006791085793182512,-0.0003478225406380038
0.4816053511705686,-1.776116999086651,-2.1937222242262497,-0.0006224264420028786,-0.0000000000000027937375519215058,-0.0000000000000005112188047826458,-0.00035717354162197147
0.4882943143812709,-1.7604477153956348,-2.2234726600422707,-0.0006349935571775783,-0.000000000000001992294297746156,-0.00000000000000037138814566933886,-0.00036640028980162076
0.49498327759197325,-1.7448881284290938,-2.250923222878342,-0.0006479423767060927,-0.000000000000004630498253528084,0.0000000000000005729635908941123,-0.00037552463423981216
0.5016722408026756,-1.7292900438904908,-2.275195957938115,-0.0006613986900304626,0.0000000000000006223661927746942,0.0000000000000012067662816683382,-0.00038452750349015345
0.5083612040133779,-1.7137056772102413,-2.296314948253109,-0.0006752360809390529,0.0000000000000020838515028436123,0.000000000000001597974279915107,-0.0003933899829132415
0.5150501672240803,-1.6982383817490116,-2.314530210913557,-0.0006892883424307306,0.000000000000002264438617964394,0.0000000000000009359733317381086,-0.00040207174632858806
0.5217391304347826,-1.682943353756217,-2.329781119443492,-0.0007034874582151972,0.0000000000000022463115391748595,-0.0000000000000011289511488728802,-0.00041054489533223814
0.5284280936454849,-1.6679018999228312,-2.3386784281701107,-0.0007179584868541527,-0.0000000000000010140826756230286,-0.0000000000000006428579194868168,-0.0004187225032935258
0.5351170568561873,-1.653084683024751,-2.343059935650335,-0.0007324450401169883,-0.0000000000000014950750268072079,-0.0000000000000004836366850449731,-0.0004266368148237443
0.5418060200668896,-1.6385053764851663,-2.342920435638012,-0.0007469175658368269,0.00000000000000015390955181125358,-0.0000000000000005452261061532976,-0.00043430068334039657
0.5484949832775919,-1.6243967085664328,-2.334639777655434,-0.0007612717585538469,0.000000000000003584249594145234,-0.000000000000000669419291414028,-0.0004415549812933076
0.5551839464882943,-1.6107826695951666,-2.3162538042549734,-0.0007753893061836268,0.0000000000000019065993834580708,0.00000000000000036778900555799286,-0.00044843122287751587
0.5618729096989966,-1.597543938378692,-2.2905421559139527,-0.0007892807413219374,-0.0000000000000016913322594649618,0.0000000000000018571825758250143,-0.0004550388347635693
0.568561872909699,-1.5857183865610363,-2.2397090101155808,-0.0008019854691002158,0.0000000000000015645224826757109,0.0000000000000019590226552915002,-0.0004607662292986503
0.5752508361204013,-1.57512829179574,-2.1649826268529933,-0.000813424989612532,0.000000000000003254611886262145,0.0000000000000017467128917275472,-0.00046586001629969154
0.5819397993311036,-1.5675172312788386,-2.0326429315169667,-0.0008218137397484757,0.0000000000000011692009115928758,0.0000000000000007768995470167787,-0.000469425997424891
0.5886287625418061,-1.5599061707619368,-1.9003032361809384,-0.0008302024898844195,-0.0000000000000009162100630764281,-0.00000000000000019291379769400606,-0.00047299197855009054
0.5953177257525084,-1.5505450432604426,-1.7944019510726674,-0.0008406769007695768,-0.00000000000000188402057139691,-0.0000000000000008120557070720292,-0.0004772852698748151
0.6020066889632107,-1.5395113625648527,-1.7137680687910017,-0.000853144594528252,-0.0000000000000017837312605841145,-0.0000000000000010960580849878135,-0.00048227365744901105
0.6086956521739131,-1.5273405813416534,-1.6464578100965759,-0.0008670995489117064,0.0000000000000002480249180211388,-0.0000000000000003468124826793268,-0.00048764115417126747
0.6153846153846154,-1.5143874731358418,-1.588314225750973,-0.0008820777409849613,0.000000000000003608633392450107,0.0000000000000011133093834532083,-0.0004932694785940497
0.6220735785953178,-1.500215512813732,-1.54166674635429,-0.0008988503134129809,0.0000000000000017384420567567786,0.0000000000000003359790425121276,-0.0004991955304980647
0.6287625418060201,-1.4855364177416504,-1.4989768079947114,-0.0009164199807319964,0.0000000000000004654487892194398,0.00000000000000037907030296326134,-0.0005051865759905898
0.6354515050167224,-1.4702899786090153,-1.4606529696922417,-0.0009348993984627773,0.00000000000000021308082995503251,0.0000000000000013595428588420477,-0.0005112351339397764
0.6421404682274248,-1.4543737268031884,-1.4280116014314115,-0.0009545777707837117,0.0000000000000010074147092788418,0.0000000000000011107531844488682,-0.0005172700083239287
0.6488294314381271,-1.4379244633765742,-1.3988175777738125,-0.0009752419806353451,0.0000000000000006092625208599382,0.0000000000000007908997217278651,-0.0005232636315972384
0.6555183946488294,-1.4210122868366442,-1.372520877839126,-0.0009968115394511409,-0.00000000000000011021130310299964,0.0000000000000001116019053746918,-0.0005291798404966257
0.6622073578595318,-1.4036668038586628,-1.348719059597207,-0.0010192967221424886,-0.00000000000000010381392518927109,-0.0000000000000006526149383325077,-0.0005349829052313181
0.6688963210702341,-1.385902601875611,-1.3268266104502682,-0.0010427368747538916,0.0000000000000015729359749719848,-0.0000000000000004016067897295167,-0.0005406484471624001
0.6755852842809364,-1.367213922993552,-1.3074108398995934,-0.0010678108027512283,-0.0000000000000024409129917909855,0.0000000000000021275915378522714,-0.000546203651351929
0.6822742474916388,-1.3482987831905429,-1.2897791770076295,-0.001093639381332721,-0.0000000000000026846033275024637,0.0000000000000012196232144670985,-0.0005514456107314278
0.6889632107023411,-1.329009442600096,-1.273959521445437,-0.001120420843462196,0.00000000000000010624973633446486,0.0000000000000006864661168862646,-0.0005564075710210141
0.6956521739130435,-1.309355766195517,-1.259879778151841,-0.0011481680487086985,0.000000000000001884839494407727,-0.00000000000000010973318284205781,-0.0005610527663132743
0.7023411371237458,-1.2892917333461171,-1.2470041169861985,-0.0011769728648172544,-0.0000000000000007347552499135643,0.000000000000000597020354813145,-0.00056535549801579
0.7090301003344481,-1.2688786082516388,-1.2353578588638834,-0.0012067732174114699,-0.0000000000000028312847959583986,0.0000000000000020687973519385244,-0.0005692647705060131
