# n,energy,berry,bcd_x,bcd_y,qmd_x,qmd_y
0.00000022222222222222224,-3.0559677369178155,0.000000006688931307295393,0,0,0,0
0.006666666666666667,-3.0080695397735058,0.0002113515052195563,0.0000000017317981495173688,-0.0000000009348013264603017,-0.0000000003645285764972951,0.0000000009036646941510818
0.013333333333333334,-2.960883360655689,0.0004551470037023125,0.000000006907479636875923,-0.00000000018539041861513208,-0.0000000019819915590120473,0.000000001021075497182989
0.02,-2.9350139611630577,0.000505284383226068,0.00000000862071670243962,-0.0000000026554784545617467,-0.0000000009296606117652044,0.000000004628582046385165
0.02666666666666667,-2.911497657591346,0.0005450042566258667,0.000000012304459517211248,-0.000000003180108232571128,-0.000000001649769602691029,0.00000000566621425129367
0.03333333333333333,-2.888163825877921,0.0005970660721483021,0.000000015829504814904787,-0.000000004982931670762438,-0.000000002133491998123478,0.000000008031862697590045
0.04,-2.864981959816213,0.0006624897554819768,0.00000002183401092311786,-0.00000000623908461427005,-0.0000000031712528257783007,0.000000009443675238682803
0.04666666666666667,-2.8419731895748095,0.0007421816124638931,0.000000028570498804767704,-0.000000008255063093945186,-0.000000003655994003061389,0.000000011726246222099923
0.05333333333333334,-2.8191237581139807,0.0008365823386564002,0.0000000357380447247099,-0.000000011351684632660581,-0.0000000065344446824248665,0.00000001180254585551949
0.06,-2.7964634230744627,0.0009471496912197564,0.0000000445764876131434,-0.000000013930357667882998,-0.000000005808464672230405,0.000000017036592078763054
0.06666666666666667,-2.7739664015443766,0.0010754184091813473,0.00000005577301917588314,-0.000000016335082307083583,-0.0000000064450744843959406,0.00000001991584296209709
0.07333333333333333,-2.7516249051462474,0.0012214688090389295,0.00000006981494753108619,-0.00000001951247764947226,-0.0000000067467930533328374,0.00000002523359834869951
0.08,-2.7294847288482393,0.0013870902137918086,-0.00008527533847718877,-0.000021188063421084,-0.000007285119580318478,-0.00008517322838964963
0.08666666666666667,-2.707499924245384,0.0015715514010012249,-0.00016146076457928328,-0.000039631590989417344,-0.000001536664651341692,-0.00016204849072793976
0.09333333333333334,-2.6856568823315854,0.0017776676967893668,-0.00010251540634848912,-0.000025798199760977643,0.000022474024103925977,-0.00010389573364865879
0.1,-2.6639680305766067,0.0020037182537797214,-0.0000968235339263315,-0.000026501114521702155,0.000034392768787716,-0.00009709741796575522
0.10666666666666667,-2.6424753732716755,0.002255003401675132,-0.00009887126242254692,-0.00002898348899408372,0.00004432668940637945,-0.00009639518997194802
0.11333333333333333,-2.62116112789134,0.00253028801205794,0.00004613665797029197,0.0000003313140797730273,0.000014112441297898123,-0.00024869645327925844
0.12,-2.599981227313026,0.0028315660227590965,0.0000064362200025512285,-0.00001368960754945242,0.000004077021036420469,-0.0002148624944677646
0.12666666666666668,-2.5789371014870888,0.0031632941932448304,-0.000020221688176568724,-0.00002374893108251024,-0.000008385613396701296,-0.0001929664749171218
0.13333333333333333,-2.5580808962352477,0.0035208765569412536,-0.0000326038020503902,-0.00003136892759796103,-0.0000254969474948502,-0.00018256767685715042
0.14,-2.537420385935416,0.00391012523044366,-0.0000411898979683514,-0.00003946706849941522,-0.000048518912421499593,-0.00017084960553455554
0.14666666666666667,-2.51690896630935,0.004338497271483322,-0.0000482061763542878,-0.00004864552661684355,-0.00007933270889061872,-0.0001532471183119014
0.15333333333333332,-2.4965404147364163,0.004799962147795738,-0.000054270159741081386,-0.00005921992893279089,-0.0001209007231544833,-0.00012569771754315564
0.16,-2.4763599041803266,0.005302105242864244,-0.00005966097306561018,-0.00007167541673048938,-0.00017649877233589685,-0.00008399069188730273
0.16666666666666666,-2.456346692091963,0.005851332862297021,-0.00006442546244219232,-0.00008620802846708938,-0.00025097600476567226,-0.00002270268300706374
0.17333333333333334,-2.4364875336563068,0.006444883208068931,-0.00006851114221180078,-0.0001031800092509737,-0.00035058029854957495,0.0000653848172172408
0.18,-2.4167935906286258,0.007098870468833299,-0.00007182058757309448,-0.00012271861331070806,-0.0004834697691850229,0.00018902665379657375
0.18666666666666668,-2.397303544736979,0.007820472620822585,-0.00007403219426102522,-0.0001451382834147858,-0.0006598319736019314,0.0003594624990382191
0.19333333333333333,-2.3779834018612513,0.008624038447400633,-0.00007485130433117192,-0.00017047841360111798,-0.000893850233389707,0.0005912666138213063
0.2,-2.3587995343247066,0.009528054960260166,-0.00007395624969584918,-0.00019885887029893188,-0.0012043308969944004,0.0009032735094953829
0.20666666666666667,-2.339843791714581,0.010559443098742238,-0.00007081336260142781,-0.00023037665813341148,-0.0016173065874794637,0.0013223590995087716
0.21333333333333335,-2.321068176078394,0.01178482244209477,-0.00006465575327627935,-0.00026458434146895175,-0.002167533329315696,0.0018819867577825427
0.22,-2.302543894198135,0.013244351957115826,-0.000055076679140509474,-0.0003007870366239032,-0.0028924830481156833,0.002617347978744342
0.22666666666666666,-2.284223010740659,0.015109841960409381,-0.000041750340963535365,-0.0003379248509163088,-0.0038453794115448363,0.003575745147643074
0.23333333333333334,-2.2661559949187247,0.017567242755855385,-0.00002555938157100317,-0.0003739490629312697,-0.005086765910869274,0.004803991858674547
0.24,-2.2484021360904505,0.021149443195269953,-0.00001079643219481388,-0.00040554747604355464,-0.006681555828999913,0.0063279639604917216
0.24666666666666667,-2.231053745463422,0.02688297637073397,-0.000001607605182660941,-0.0004298138022556173,-0.008674394779108757,0.008044243634874474
0.25333333333333335,-2.2144858060348227,0.03879019066990308,0.00006239646151268674,-0.0004691297410570418,-0.011952917046416107,0.009243551567236814
0.26,-2.1988532477966385,0.05940043625516535,0.00023150352454875739,-0.0005385267571636974,-0.01698909610580221,0.009585608877965128
0.26666666666666666,-2.1822954163486656,0.07750346137041529,0.0002732283724457188,-0.00048359908756685034,-0.018172446306849138,0.013890413653275091
0.2733333333333333,-2.1642181594464995,0.08458363028680226,0.0003414807311825221,-0.00043960352391607014,-0.023637237260981974,0.019162641231074508
0.28,-2.14538707349808,0.08202746382894932,0.00042847225880036585,-0.00035278568594620337,-0.03095581371533932,0.02652308760832029
0.2866666666666667,-2.1271861569047648,0.06247297901511495,0.0006758107402122014,-0.00024365163431573652,-0.040234783807871315,0.036198311698064554
0.29333333333333333,-2.1074560911791083,0.03709899491822842,0.0008987436517388778,0.000023910575102932595,-0.058093413361654286,0.04767851084143083
0.3,-2.088169108196241,0.0009029770979575996,0.0010626116453517276,0.00032883806674245756,-0.06827053261250896,0.060412031234008685
0.30666666666666664,-2.069059853183352,-0.03394236007348952,0.0012449365329622536,0.0007074763312234085,-0.07674682193263704,0.0745998825192776
0.31333333333333335,-2.0489786833322032,-0.05924995052636428,0.001377100018784293,0.0012392408400655219,-0.08734477004504314,0.08942076538146099
0.32,-2.028713878969597,-0.07334604429238455,0.0012965089483612182,0.0019187648066564477,-0.09397198646515491,0.1021881661949898
0.32666666666666666,-2.0108710874840523,-0.06994601499460658,0.0012088971348433227,0.002513448002061526,-0.089945872710111,0.11140926022070498
0.3333333333333333,-1.9946007445195355,-0.06042695620903891,0.002011687239741702,0.003225341614999565,-0.09588077356387975,0.1296375719452423
0.34,-1.9784754230144794,-0.054496807753422,0.0036641615299950075,0.004154107272938321,-0.1224005468358693,0.1611324636294367
0.3466666666666667,-1.9625213270063633,-0.05126277341212787,0.0027249778128262134,0.004392422705477771,-0.12399030083866144,0.17301544445726105
0.35333333333333333,-1.9467693981810674,-0.05011262643138993,-0.0010788861740826383,0.00401112253919341,-0.07478831888424117,0.18965225535893582
0.36,-1.9311830970752757,-0.05047331645044567,-0.0012240385562998638,0.003616014101351479,-0.015194571809135804,0.19385100576995384
0.36666666666666664,-1.9157613410237837,-0.05229944021367648,0.0001297887822688098,0.002951164698040839,0.06870536400955915,0.18632863098902705
0.37333333333333335,-1.9005028240202646,-0.05556246531071656,0.00011387449078748787,0.001806844147873449,0.19651932937915334,0.16816535213867492
0.38,-1.8854733180397458,-0.06066159840447734,-0.0002949559022768657,0.0018598573314626981,0.4148049806679356,0.10106119060921126
0.38666666666666666,-1.8701501263932196,-0.04819950413999417,-0.0004458910151053056,0.0015775207050003123,0.5308234287792322,0.07491558942026386
0.3933333333333333,-1.8549430714551087,-0.029041166895721532,-0.0005175291511072789,0.0011372893397632393,0.6132869009292257,0.062050995529849634
0.4,-1.8400758955501253,-0.00981439707205423,-0.0006057275014359983,0.0006527295547444336,0.7031441257849236,0.04621678714560508
0.4066666666666667,-1.8256253006417071,0.009083915590224147,-0.0006366864589898163,0.0001367896828052995,0.8017058093706119,0.028625486889209968
0.41333333333333333,-1.8115093763940762,0.027363930637045585,-0.0006088386332571357,-0.000302807936720676,0.9162849275231469,0.008886439676067311
0.42,-1.7976688883165575,0.04464063439252841,-0.0004935663301487528,-0.0006489362560610787,1.046321888396432,-0.007583873018445988
0.4266666666666667,-1.7841721528433623,0.06013220367007484,-0.00022711893549263144,-0.0008453857976666829,1.1981033695926706,-0.014545969054606835
0.43333333333333335,-1.7711357722189793,0.06852673552937093,0.000542895778978545,-0.000009559585435652777,1.3692839633252414,0.12308483209669618
0.44,-1.7583668029579145,0.06334747485211087,0.005344930588763017,0.005738824741224705,21.472251396025126,24.87819815751726
0.44666666666666666,-1.7460206491179973,0.028166120024906087,0.01990111822502566,0.02315175159234049,91.09005151985204,110.72509975274129
0.4533333333333333,-1.7337552902779605,-0.010207806621645027,0.008233598550869806,0.018947951426042504,65.7326620452945,80.94473781032454
0.46,-1.7215627199530952,-0.04917603815257491,-0.014991306775677503,0.0051399547867858495,-2.1782221172638083,-0.6800060140873828
0.4666666666666667,-1.7100692620841482,-0.06855241960959485,-0.015424293323379239,0.008522123137802986,-1.9396468968804919,-0.11763199235647293
0.47333333333333333,-1.6986269369765576,-0.08376246261358217,-0.015937050997730698,0.011356705984889708,-1.7434649685075052,0.27047149122115466
0.48,-1.6872963568779116,-0.08986743256168511,-0.01662413966897158,0.012994601123132096,-1.6399289029670339,0.2777259393060125
0.4866666666666667,-1.6762263873753476,-0.09663972883122819,-0.017295810695681407,0.01435093194608696,-1.555428891126532,0.2711115373262844
0.49333333333333335,-1.66536380188238,-0.10394305803009149,-0.017955212946718063,0.015483204585908059,-1.486077047482332,0.2534608314582164
0.5,-1.6549970217058134,-0.11631073160564628,-0.01851840214964565,0.01642705183068075,-1.4360703092480698,0.23302172413455588
0.5066666666666667,-1.6448191556112728,-0.13060804558104813,-0.019044931802824187,0.017299104341999712,-1.3934345343926249,0.21152016692607548
0.5133333333333333,-1.6355677399754232,-0.15989212688849969,-0.019448271655706978,0.01811943292003796,-1.361045904800176,0.1954709104918787
0.52,-1.626596137227123,-0.1937026139015954,-0.019814404884734124,0.018924139482898915,-1.3317521879235454,0.18106839513177728
0.5266666666666666,-1.619054405372324,-0.2625560715095023,-0.020030504263613108,0.019595593200732404,-1.310055234521387,0.16915146671002118
0.5333333333333333,-1.6126874614864333,-0.36020098185397076,-0.020123335197149036,0.0201575658179486,-1.294599814094702,0.15927670702120242
0.54,-1.6063205176005428,-0.45784589219843924,-0.020216166130684967,0.020719538435164796,-1.279144393668017,0.14940194733238366
0.5466666666666666,-1.5988222530632108,-0.5176809358570547,-0.020229642557407078,0.021250913700432368,-1.2624880946493457,0.13773707630400236
0.5533333333333333,-1.5897750896761558,-0.5257502321625467,-0.020134474185532394,0.021740397921655635,-1.2441876645283079,0.12362135158423672
0.56,-1.5806504691715197,-0.5271556854196461,-0.01989575209795586,0.022289486136701665,-1.205411656878768,0.10461307109846023
0.5666666666666667,-1.5712537174698233,-0.5051489637543584,-0.019152680691470768,0.023047981914218415,-1.09469851036612,0.06841570458836542
0.5733333333333334,-1.5618866347519798,-0.47882154493044476,-0.018379921685524662,0.02362669684546461,-0.9880546496434768,0.03353963692898333
0.58,-1.552778211367611,-0.4148255408684066,-0.017348341052013265,0.02263805125980766,-0.9168875263573305,0.010182881212993267
0.5866666666666667,-1.5436697879832422,-0.3508295368063674,-0.01631676041850185,0.021649405674150694,-0.845720403071183,-0.013173874502997188
0.5933333333333334,-1.5362467163230176,-0.2098329509789168,-0.015238108760259557,0.020609443151762184,-0.8005030591532762,-0.031692844273321585
0.6,-1.5289758561486917,-0.06188210581339754,-0.014155205911886218,0.019564845972358323,-0.7576293533138754,-0.04977489243452415
0.6066666666666667,-1.5214902138986237,0.08411462405968165,-0.012988503565951397,0.01845590603841099,-0.7149407546877528,-0.06775515754310053
0.6133333333333333,-1.5130196772632554,0.2211506565695918,-0.011437534263129375,0.017051919055189657,-0.6731009748208646,-0.08526869116719744
0.62,-1.5045491406278866,0.3581866890795043,-0.009886564960307327,0.0156479320719683,-0.6312611949539757,-0.10278222479129466
0.6266666666666667,-1.4927688741449916,0.39817400458862173,-0.0069856605464865,0.01317596813386676,-0.5821344909869622,-0.12674332565620852
0.6333333333333333,-1.4800708648750427,0.4154735038490324,-0.0036300434596427877,0.010232836212413445,-0.5309067482484162,-0.15249343959087963
0.64,-1.4665972694464233,0.4240508242469856,0.00030884170595979737,0.006458283114717377,-0.47770422536101026,-0.17975839957820405
0.6466666666666666,-1.4525021561427922,0.4252195702202804,0.004643100501522107,0.0016647344712655133,-0.42686065859515543,-0.19938144549056364
0.6533333333333333,-1.4379552586645707,0.4207835418880317,0.009330465208644506,-0.004044753667772507,-0.3749867473841053,-0.2155638052758317
0.66,-1.4229473902417042,0.4103137972327083,0.014404932260855246,-0.010860238364363653,-0.319589367262598,-0.22982812267779396
0.6666666666666666,-1.407314422353736,0.38796602127227175,0.019226835971376085,-0.01989146481187342,-0.254156829467956,-0.23684582714801639
0.6733333333333333,-1.39124016937164,0.35434382558087874,0.023410400616816256,-0.02996340030045399,-0.19104983261366387,-0.23753231433321823
0.68,-1.3747274141707535,0.30348225694914227,0.025069675969481925,-0.041486713568338135,-0.11201920165670763,-0.2261393791769648
0.6866666666666666,-1.357781472473109,0.22556442421161957,0.027353168297625498,-0.05026379063001669,-0.04513967121768,-0.20971240593409038
0.6933333333333334,-1.3403457003975296,0.1140854089618553,0.0337348149077341,-0.051972743059561455,-0.03124817105824168,-0.19369544558438537
0.7,-1.3218751572995662,0.021989562552770035,0.03543211042284827,-0.05331544451766964,-0.020358424387797218,-0.15239390371180503
0.7066666666666667,-1.3003148825462345,0.3325957256864746,0.03104408367035045,-0.049944021896613205,0.03993656140981193,-0.14506146037496293
0.7133333333333334,-1.2794136294687457,0.7347104826194845,0.024590317053919803,-0.04519927287884087,0.07553936424741402,-0.13039246495555443
0.72,-1.2591246558668334,1.234753597480949,0.018450523097112804,-0.04018864572782516,0.09005422948451292,-0.11022553030280996
0.7266666666666667,-1.2382578411870258,1.655214474099315,0.014163537969324048,-0.03611331800615069,0.08956678579949053,-0.08721805773259671
0.7333333333333333,-1.216414519385528,1.7633546917483038,0.00733526558269393,-0.02998653267645811,0.07963538482582921,-0.06355134058563766
0.74,-1.1945262540304433,1.6965225123639274,0.0047016597544182375,-0.025286881137409588,0.0653797825845834,-0.0453614679587535
0.7466666666666667,-1.1735172184531089,1.515486750976313,0.002846038306133114,-0.02137036797653298,0.05192200503251959,-0.031246729005504726
0.7533333333333333,-1.1540407335579632,1.2217278136728082,0.00012873478949791857,-0.017632293224212593,0.041743473499296746,-0.022819432752846328
0.76,-1.1343815960088706,0.9916766108820053,-0.002008463653601549,-0.014143129316610013,0.033151983312255336,-0.017580294163890068
0.7666666666666667,-1.1133407368790864,0.9046925250947048,-0.001975731452400602,-0.0113787729518466,0.025166772932159763,-0.012303251913579399
0.7733333333333333,-1.091557691255624,0.8629052357976101,-0.0019104093850319413,-0.008950471013718207,0.018640491342511948,-0.0075051304073957565
0.78,-1.069186639798248,0.8410757115117184,-0.0019211892692488801,-0.006794712078000496,0.013572624505943372,-0.0037232543479085592
0.7866666666666666,-1.046255822208029,0.8294794627893856,-0.0018726293748216071,-0.004925305869521815,0.009761038317704925,-0.0008690859469020515
0.7933333333333333,-1.0228079090873412,0.8246150370094222,-0.0017388762971604795,-0.0033570288188227632,0.007047759920506033,0.0011939128785544994
0.8,-0.9988469177270282,0.8231557512401312,-0.0015384464064965029,-0.0020368596580802637,0.005130580354134814,0.0027084482664197613
0.8066666666666666,-0.9744487964095322,0.8239145823229721,-0.0012940271711835937,-0.000928026857477972,0.0037887809859695845,0.003847914664170082
0.8133333333333334,-0.9495779436810101,0.8266227038872694,-0.0010177042401937255,0.00000023773238615795028,0.002873378761450464,0.00472955451095869
0.82,-0.9241587338156942,0.8300528132021029,-0.0007138933168263103,0.0007701379825133209,0.0022835287695940304,0.005439119336563452
0.8266666666666667,-0.8982659909659062,0.834779870636744,-0.00038647945192972873,0.0013870915902788905,0.0019460532738751043,0.0060446299021997265
0.8333333333333334,-0.871942795946298,0.8399238299462135,-0.000030672376031448066,0.0018899344523603933,0.0017682474230380737,0.006616413728396184
0.84,-0.8450964782455922,0.8459064401597889,0.00036429084469103004,0.0022912279583685692,0.0017163419062836967,0.00719939721107283
0.8466666666666667,-0.8177231123186663,0.8521266457920015,0.000821231504240762,0.00258709839723918,0.0017805133262956804,0.007844563764640286
0.8533333333333334,-0.7898772923715213,0.8587449156609258,0.0013645429025372006,0.002810710443822065,0.0019364395289699391,0.008588310832775413
0.86,-0.7615105431828662,0.8661596032060424,0.0020716144939054958,0.002961593146834092,0.002206372414534128,0.009511360361556783
0.8666666666666667,-0.7326369779510081,0.8736034362365078,0.0030631190237987477,0.0030676404477548804,0.0026349670255602768,0.010716958303507393
0.8733333333333333,-0.7031730363765402,0.8815360018743803,0.004637278247057505,0.0032218928902955205,0.003378860634832823,0.012435143772106552
0.88,-0.6731854483021541,0.8898073250015924,0.007905596262894245,0.0036662778661910745,0.004933883013385949,0.015445301838779459
0.8866666666666667,-0.6426704862240702,0.8986170920930404,0.019495124023534826,-0.0010970720369244333,0.005322601947934078,0.026041321438638312
0.8933333333333333,-0.6115730564066765,0.9078839710104702,-0.0004893705040969337,-0.005304061288140351,-0.002256332474910073,0.014884987690413399
0.9,-0.5798554146675146,0.9175982951208809,-0.010987872073343069,-0.0005272590740452594,-0.0011611019631322308,0.008242951983988887
0.9066666666666666,-0.547568272019722,0.9276241082204945,-0.012959200710698332,-0.0011578490391438822,-0.0013329836318860227,0.009780432964649317
0.9133333333333333,-0.5145629367889345,0.9386477394305283,-0.016201048365607065,-0.002136271054217424,-0.0016524731301531517,0.012321623077398718
0.92,-0.48094446401602653,0.9501968131817564,-0.022702040457409676,-0.0038960561180886397,-0.002348663718265081,0.01747196735554808
0.9266666666666666,-0.4466177731989247,0.962343224741374,-0.0420256328513483,-0.009062179145229858,-0.004124318361605076,0.03303878498414271
