# n,energy,berry,bcd_x,bcd_y,qmd_x,qmd_y
0.0000015,-3.000412255124413,-0.00000000000000035783157753630777,0,0,0,0
0.006688963210702341,-2.976288493142662,-0.000000022712473145099967,-0.000000000000000000005315736732973631,-0.000000000000000000002459184973265991,0.00000000000000000000035492656461873637,0.0000000000000000000002341043064025371
0.013377926421404682,-2.9523085172113968,-0.00000014757402630429715,0.000000000000000000013153100449946249,0.00000000000000000000928183798732473,-0.0000000000000000000010050740009629683,-0.000000000000000000008257578664040833
0.020066889632107024,-2.928541653260977,-0.0000005456858073002044,0.00000000000000000015681733095854648,0.00000000000000000000008375991115258411,0.00000000000000000001031141767275179,0.000000000000000000024318136967628032
0.026755852842809364,-2.9049965444854964,-0.0000012603814647775986,-0.00000000000000000017548712254585832,0.0000000000000000001094931986728113,0.00000000000000000007544338442703843,-0.000000000000000000015327196785226155
0.033444816053511704,-2.8816641280617072,-0.0000027919612574365596,-0.000000000000000000006616315623218935,-0.0000000000000000002795704636479303,0.0000000000000000001240453853983925,-0.00000000000000000012861284600181383
0.04013377926421405,-2.858567523541359,-0.00000484475643567471,-0.00000000000000000034944704708705237,-0.0000000000000000005667350273379331,0.000000000000000000008423279728718439,0.000000000000000000010719168114427011
0.046822742474916385,-2.835548289978069,-0.000007662853397049635,-0.0000000000000000008297493633922831,0.0000000000000000007891657298739853,0.00000000000000000008692915482895702,0.00000000000000000012402721483653671
0.05351170568561873,-2.812822782751263,-0.000012466289974983941,-0.0000000000000000008738887312878926,0.0000000000000000006606837590723529,0.00000000000000000030426861347976707,0.0000000000000000004842536161825602
0.06020066889632107,-2.790280469369693,-0.000018146060676282994,0.0000000000000000003260459231310065,-0.0000000000000000009105325999858038,-0.0000000000000000004184267089632369,-0.0000000000000000001759818500493727
0.06688963210702341,-2.767919189332843,-0.000026743395121229444,-0.0000000000000000011468716712650449,0.000000000000000004406098226670973,0.0000000000000000004886704063926282,0.00000000000000000008331709680971976
0.07357859531772576,-2.7456082647586078,-0.00003721643865555841,0.000000000000000000768217748105904,0.00000000000000000040007879209278144,-0.0000000000000000010754760796891199,0.00000000000000000003410062472267388
0.0802675585284281,-2.723758955746711,-0.000051028517054437596,-0.0000000000000000048719556650365555,0.000000000000000004021177286319071,0.0000000000000000009430781403042945,0.0000000000000000006913618331397097
0.08695652173913043,-2.701911418663608,-0.00006599289989701838,-0.00000000000000000445607451230569,-0.0000000000000000032772412222564923,-0.0000000000000000008214708702974251,-0.0000000000000000024836406486798803
0.09364548494983277,-2.680310670367136,-0.00008581455855691058,-0.000000000000000008531408808402795,-0.000000000000000007607467644444137,0.000000000000000002868402098498576,-0.0000000000000000015924199532580261
0.10033444816053512,-2.658922368340734,-0.00011168442949508848,-0.000000000000000012815302717269722,-0.0000000000000000014071823108072994,0.000000000000000010716068359208995,0.0000000000000000025900582388501673
0.10702341137123746,-2.637689644955762,-0.00013978814579218522,-0.0000000000000000018345380204894176,0.000000000000000008771085374278342,0.0000000000000000033896047444084395,0.0000000000000000028585472371774553
0.11371237458193979,-2.6166506316106912,-0.00017480605536880913,0.000000000000000016305700514632598,0.000000000000000005726597685256618,-0.0000000000000000011652736142381857,0.00000000000000001076691551034523
0.12040133779264214,-2.5957704075429233,-0.00021401915431112705,0.000000000000000008559407084997005,0.000000000000000014218600131402267,0.00000000000000001533308735283118,0.000000000000000013496881020877656
0.12709030100334448,-2.5751440588605017,-0.0002661086037735797,-0.000000000000000006605043359409047,0.0000000000000000046562776355290274,0.000000000000000002860084383770696,0.00000000000000001409687114362241
0.13377926421404682,-2.554705504418355,-0.00032615636544279806,-0.00000000000000000186804937506236,-0.00000000000000001215987311620877,0.000000000000000002625480941857905,-0.000000000000000008656230867048813
0.14046822742474915,-2.5343664540399042,-0.0003963933962859153,-0.000000000000000010780211809740824,-0.000000000000000040889722513456276,-0.00000000000000001109985817609394,-0.000000000000000009305710986434
0.14715719063545152,-2.514199060630251,-0.00048419354939884326,-0.000000000000000004414445368590343,-0.00000000000000003394861216417591,-0.00000000000000001990778750216805,0.00000000000000001621281686378436
0.15384615384615385,-2.4942932506223037,-0.0005809845316307206,0.000000000000000007485315178070212,0.0000000000000000677187799802583,0.000000000000000011840358057892326,-0.00000000000000002061764732065574
0.1605351170568562,-2.474572597582159,-0.0006773260842012828,-0.00000000000000001873227895097591,0.00000000000000002931724759972022,0.000000000000000004813995546556471,0.000000000000000004821735399312108
0.16722408026755853,-2.4549499615448065,-0.0007857512174529288,-0.000000000000000022458385113917283,-0.00000000000000003246251811895405,0.00000000000000003745337303845004,-0.000000000000000030531482303334066
0.17391304347826086,-2.435599894749552,-0.0009449388844735026,0.00000000000000008137076670526584,-0.00000000000000002963300843172149,-0.000000000000000004611731801983884,0.000000000000000006552629194150486
0.1806020066889632,-2.4163610929808432,-0.0011203629698675836,-0.00000000000000003143199922136247,0.0000000000000000713046138734641,-0.00000000000000001921005526995651,0.0000000000000000040431235705265236
0.18729096989966554,-2.3973309169705983,-0.0012978683907453794,-0.00000000000000010544782978072893,0.000000000000000042633436231866133,-0.000000000000000021027254696242638,-0.0000000000000000078825169145998
0.1939799331103679,-2.378523026017193,-0.0015323929719539872,-0.0000000000000000774291129553285,-0.000000000000000034824959557210524,0.000000000000000031252695606102896,-0.000000000000000037405770449941736
0.20066889632107024,-2.359885682488717,-0.0017803700024192183,-0.000000000000000054428241229735396,-0.00000000000000016942767979031335,-0.00000000000000005563464119448429,-0.00000000000000001843401165083234
0.20735785953177258,-2.341447097707946,-0.0020714156846882567,-0.00000000000000005646199426569343,-0.00000000000000006447885018572305,0.000000000000000012387003241451499,-0.000000000000000030865225716260415
0.2140468227424749,-2.3231341015260116,-0.0024034360808107016,-0.002365154461493103,0.000000000000000050586345160548014,0.00000000000000000709938508943384,-0.0007532338800634396
0.22073578595317725,-2.305050753228282,-0.0027843986065191105,-0.00200584927399006,0.00000000000000013707118434974184,-0.000000000000000026395134164334676,-0.0006557597714463611
0.22742474916387959,-2.287207789716194,-0.0032023079697134863,-0.0007169441617795613,0.0000000000000000376283691717601,-0.000000000000000022630490974187118,-0.00026510951905772727
0.23411371237458195,-2.2694776207386154,-0.0036729378882456583,-0.0006138513710764335,-0.00000000000000001424225955943548,-0.000000000000000036369383253352144,-0.0002449709764718685
0.2408026755852843,-2.2518748244252413,-0.004238013448551035,-0.0005714010048890835,-0.00000000000000006482684645778666,-0.00000000000000005662524613990626,-0.0002426719455245701
0.24749163879598662,-2.2345696680740694,-0.004898953223732696,-0.0005514241763855625,-0.00000000000000038616991140716337,-0.000000000000000011134713270934975,-0.0002466029180843875
0.25418060200668896,-2.217507285401406,-0.005605984421203335,-0.0005422296456268909,0.00000000000000028333547342847904,-0.000000000000000004897530570782116,-0.00025328889458840076
0.2608695652173913,-2.2005260674988363,-0.0064214462820270475,-0.0005392960956307116,0.000000000000000018419137789149687,-0.00000000000000006458774157087056,-0.0002613983241684238
0.26755852842809363,-2.1837907682878686,-0.007391021588354354,-0.0005407439336349025,0.00000000000000015625417808346247,0.00000000000000007176279337584381,-0.00027045527477034446
0.27424749163879597,-2.1672065452757407,-0.00839867306896658,-0.0005449651609037898,0.0000000000000005717615955388776,-0.00000000000000005608035616770105,-0.00028004948614370216
0.2809364548494983,-2.1507947114532233,-0.009562157272644228,-0.0005510340551448179,0.0000000000000002570449316924289,-0.00000000000000006127858898479792,-0.0002898527415427648
0.28762541806020064,-2.13459507018361,-0.01094451116152978,-0.0005583705723648759,-0.0000000000000002530862910004211,0.0000000000000000023475075563399923,-0.000299659530756121
0.29431438127090304,-2.1186276562146102,-0.012548970624420558,-0.000566660416330587,-0.00000000000000006112565803684727,-0.00000000000000010904901736826418,-0.00030938103499814036
0.3010033444816054,-2.102876916877081,-0.014406898692038124,-0.0005758396591973318,-0.0000000000000004451068017315343,-0.00000000000000013097223189478745,-0.00031900016683435124
0.3076923076923077,-2.0874726296865855,-0.016432629776523232,-0.0005860486616528385,0.0000000000000004976819520328067,-0.00000000000000005399558982275705,-0.00032860533402170145
0.31438127090301005,-2.0722233133230676,-0.01880540314321091,-0.0005965414806530177,0.0000000000000005089321125509583,0.00000000000000016472220913687722,-0.00033795668391793096
0.3210702341137124,-2.0571618145896253,-0.021543824751136805,-0.0006073956966000382,0.00000000000000012154163642852918,0.00000000000000023327576148458415,-0.00034711968772166505
0.3277591973244147,-2.042338628204745,-0.02462781143090934,-0.0006187697546306496,0.0000000000000002022548866226913,-0.00000000000000013555519227071312,-0.0003562035403030517
0.33444816053511706,-2.027801504873543,-0.02839281937639832,-0.0006304907024591009,-0.0000000000000007435271662878817,-0.000000000000000014322533535610302,-0.00036499281066596363
0.3411371237458194,-2.0135303375496902,-0.032568153667106914,-0.000642352059869939,-0.0000000000000006398618030401204,0.00000000000000003916729489093998,-0.00037353384719297897
0.34782608695652173,-1.999504133808846,-0.037329229610367304,-0.0006543234375119043,0.00000000000000007782382009818503,0.00000000000000003731164137286241,-0.0003818458573043841
0.35451505016722407,-1.9857601111828784,-0.043026826498227214,-0.0006663972287768565,0.0000000000000010586283713342733,-0.00000000000000001941635953564799,-0.0003898935583397488
0.3612040133779264,-1.9723838010583035,-0.04998716133100549,-0.0006786443796895092,0.0000000000000003530812926010998,-0.00000000000000009774585370935273,-0.0003976668821922213
0.36789297658862874,-1.9592422952119446,-0.05791952836799823,-0.0006908596776558167,-0.00000000000000000017371660459115983,-0.000000000000000004858516807958128,-0.000405201926484922
0.3745819397993311,-1.9463671709144723,-0.0670114756050869,-0.0007029899532068285,0.0000000000000005363311154087226,0.0000000000000003457174859013075,-0.0004124450161779323
0.38127090301003347,-1.933978892985676,-0.0788166421139884,-0.00071499767556273,0.0000000000000008320100918570623,0.00000000000000035486572107768104,-0.00041928409277658467
0.3879598662207358,-1.9218253338279918,-0.09248458174630311,-0.0007269464582015789,0.0000000000000007066626799186056,0.000000000000000258037706546708,-0.0004259428492004477
0.39464882943143814,-1.9100733328176256,-0.10968726802053222,-0.0007387944978579414,-0.0000000000000003302314377982738,0.00000000000000001668105524898547,-0.00043230218439150784
0.4013377926421405,-1.898928130504692,-0.13269367121522213,-0.0007501853686339682,-0.0000000000000006473441593547697,-0.00000000000000023631496922734603,-0.0004382156748789694
0.4080267558528428,-1.8881297420639227,-0.1590171704199197,-0.0007613149459855147,-0.000000000000000553068105407067,-0.0000000000000004959634405509109,-0.0004438743442392708
0.41471571906354515,-1.8796382948902508,-0.22567487800469,-0.0006824410417964962,0.00000000000000009833644434853232,-0.0000000000000007283911092609823,-0.0004990098661823415
0.4214046822742475,-1.871632239704357,-0.3008191048868081,-0.0005846299546652718,0.0000000000000008669636177942494,-0.0000000000000009550913848735648,-0.0005645555655177406
0.4280936454849498,-1.8640256655098442,-0.3823467365321027,0.00014840340274564865,0.000000000000001005646978572176,-0.0000000000000009435077301394825,-0.0010035849294889592
0.43478260869565216,-1.857058072264929,-0.47408480152778676,0.0018974924379648313,0.0000000000000001367177012109086,-0.0000000000000005507823055291744,-0.0020400117963134254
0.4414715719063545,-1.850090479020014,-0.5658228665234708,0.003646581473184015,-0.000000000000000732211576150359,-0.00000000000000015805688091886638,-0.0030764386631378917
0.44816053511705684,-1.8419097265873923,-0.628951060514813,0.0063391058054828656,-0.0000000000000005385612403779017,0.0000000000000000725334040944093,-0.004690463408465558
0.45484949832775917,-1.8328480162751055,-0.671303669939108,0.009716723048373354,0.0000000000000004267008446586331,0.0000000000000001853862724140927,-0.006723921487441218
0.46153846153846156,-1.8235258612387737,-0.7030458940042628,0.013407353046959761,0.0000000000000005411087889368538,0.00000000000000015821209953695209,-0.008958645898208422
0.4682274247491639,-1.813847358963192,-0.7202707131038489,0.017526255231712414,-0.0000000000000005086440121227977,-0.00000000000000006055070979186796,-0.011468748134158446
0.47491638795986624,-1.8042217863557661,-0.7264920526295654,0.021635611391340383,-0.0000000000000011126090281439895,-0.0000000000000002544326926867826,-0.01397264371936232
0.4816053511705686,-1.79467473361821,-0.7163899989740713,0.02573080625586331,-0.0000000000000010552587536961562,-0.0000000000000004114045772961915,-0.01646733188978547
0.4882943143812709,-1.7855808485009952,-0.6848947891119259,0.02951407450102137,-0.0000000000000010181196889885874,-0.0000000000000006340882848738539,-0.018747247993871837
0.49498327759197325,-1.7773093936239892,-0.6145742576510803,0.03273124342006544,-0.000000000000001017660892983987,-0.0000000000000009760289471025596,-0.020637385494679902
0.5016722408026756,-1.7690379387469832,-0.5442537261902347,0.03594841233910952,-0.0000000000000010172020969793866,-0.0000000000000013179696093312653,-0.022527522995487968
0.5083612040133779,-1.7619767360918734,-0.4360008042319078,0.03817640771625094,-0.0000000000000016559529169843452,-0.0000000000000006704375351881066,-0.023628706817515152
0.5150501672240803,-1.7549251551927645,-0.3274463119072678,0.040396538958718364,-0.00000000000000229978558591901,-0.000000000000000015038947712911917,-0.02472361829427768
0.5217391304347826,-1.7471839531898756,-0.23211962840160286,0.042727472479438984,-0.000000000000002206487668332437,0.00000000000000024548635830985426,-0.025662040568687684
0.5284280936454849,-1.7369999840937327,-0.18364832087233107,0.045450888419405554,0.0000000000000004978648273643748,-0.0000000000000008927034455308472,-0.026046148783012753
0.5351170568561873,-1.7264861692205893,-0.1394235572455707,0.05198921202264581,0.0000000000000017612645460150414,-0.0000000000000014961439066507273,-0.02642375395575201
0.5418060200668896,-1.7152056474794364,-0.10506963206023406,0.06739506133093157,-0.00000000000000032474466421212377,-0.0000000000000008565913622036292,-0.026786243195547916
0.5484949832775919,-1.7033336416816691,-0.0750077269281301,0.047179250576165385,0.00000000000000027737552061497664,-0.000000000000002263764741668755,-0.017485241915642064
0.5551839464882943,-1.6910118164775572,-0.04820987243403374,-0.0001265785880259218,0.0000000000000029237989375216476,-0.000000000000005227458588166807,-0.0008352250195449405
0.5618729096989966,-1.6779187532661448,-0.025417457593723602,-0.0010101994965204446,0.0000000000000022033285827779545,0.00000000000000017278801730729563,-0.0005344735900340114
0.568561872909699,-1.6645913607854539,-0.004518957163634256,-0.00102785748212297,0.0000000000000014857700029395692,0.00000000000000010535274356339981,-0.0005387962635325456
0.5752508361204013,-1.6509951892876535,0.014396863495194135,-0.0010460505739230386,0.0000000000000008077041220405442,-0.000000000000005234614594170579,-0.000543050598921212
0.5819397993311036,-1.6366092194091442,0.03149912107499258,-0.0010656231795739132,-0.00000000000000043606395066493136,0.0000000000000006317303910815406,-0.0005472629863831599
0.5886287625418061,-1.6218862796853997,0.04689472802616828,-0.001085894543418903,-0.000000000000002366677547086263,0.0000000000000005240605315935605,-0.000551351301418082
0.5953177257525084,-1.6068929728408416,0.06115722003713679,-0.0011067659595688155,-0.0000000000000023046254735414713,-0.0000000000000008830812538402613,-0.0005552832639979568
0.6020066889632107,-1.5916279667528028,0.07470877406788508,-0.001128250884567389,0.000000000000001191197540269377,-0.00000000000000012424127999035178,-0.0005590349942873786
0.6086956521739131,-1.5756021179765778,0.08719986055197958,-0.001151155784711916,0.0000000000000006743216094904763,-0.0000000000000008018811103660866,-0.0005626522685893196
0.6153846153846154,-1.5593524758968171,0.09911924125875975,-0.0011747125767223824,-0.000000000000000034207236800289076,0.0000000000000016660928007250047,-0.0005659949755627366
0.6220735785953178,-1.5428194303444072,0.11021574607583381,-0.001198979185273857,-0.000000000000000049612031472726653,0.00000000000000021752715313198046,-0.00056908163968402
0.6287625418060201,-1.5258195095687994,0.12080839299479411,-0.0012242439144027064,-0.0000000000000029285285108080702,-0.000000000000001412603057169625,-0.0005719141384634536
0.6354515050167224,-1.5084068712738394,0.1307193278836313,-0.001250450782585572,-0.000000000000005327302927041419,-0.0000000000000005559947200276464,-0.0005744450742556516
0.6421404682274248,-1.4907494805549892,0.13977331295252066,-0.001277362470842899,-0.0000000000000018001666039484465,0.000000000000000025675618077823707,-0.0005766192489901069
0.6488294314381271,-1.4726267451778607,0.1488430058038454,-0.0013053237147298805,0.00000000000000027211435443985645,-0.0000000000000014526983113387502,-0.0005784238696209343
0.6555183946488294,-1.4541651246642062,0.1570560074720968,-0.001334128435705803,0.0000000000000021379618407309106,0.0000000000000015375860347811802,-0.000579794690000308
0.6622073578595318,-1.4353526190666053,0.16558500533680898,-0.0013638956334611812,-0.00000000000000030932180194668777,-0.0000000000000007182539035858331,-0.0005807364168167095
0.6688963210702341,-1.4163126450929904,0.17379698353119843,-0.0013943853080526079,-0.0000000000000003909312598337914,0.00000000000000019254976903360376,-0.0005811904719630852
0.6755852842809364,-1.3965913953040503,0.18108260405416535,-0.0014263396570737574,0.0000000000000011013222367895865,-0.000000000000002179186436856289,-0.0005811144359617635
0.6822742474916388,-1.3766709452211354,0.18884706649128294,-0.001458944460956064,0.0000000000000006392750934933239,0.0000000000000005378049538649081,-0.0005804523149355478
0.6889632107023411,-1.356479167640137,0.19575535457966953,-0.0014924115926548882,0.000000000000004701934824927907,0.0000000000000009022515926590812,-0.0005792084050923375
0.6956521739130435,-1.3357242485863707,0.20277369371257628,-0.0015271755190118623,-0.0000000000000007345760752064146,-0.0000000000000005859021807736727,-0.0005772961456276117
0.7023411371237458,-1.3148809574124671,0.21000500968099634,-0.0015624262980169998,-0.000000000000005938042868545047,-0.00000000000000021048110187121832,-0.0005747221912406664
0.7090301003344481,-1.2934549830485296,0.2159890433907723,-0.001598988604666795,-0.000000000000006116488610423757,-0.0000000000000005017753297273254,-0.0005713764078455696
0.7157190635451505,-1.271799763963141,0.22229582830684083,-0.0016362913169105388,-0.0000000000000023634088797791675,0.0000000000000016993586583595057,-0.0005672861610024267
