# n,energy,berry,bcd_x,bcd_y,qmd_x,qmd_y
0.00000016666666666666665,-3.01753327230011,0.00000000000749655569735974,0,0,0,0
0.006688963210702341,-2.9767648820389736,0.000002492278564430579,0.0000026343715321976016,-0.000004562872085501459,0.000005951428247713004,-0.0000034360500324433726
0.013377926421404682,-2.952777610510556,0.000008617110469125759,0.000006630507884199285,-0.000011484372499523283,0.000008388198239101068,-0.000004842933740095921
0.020066889632107024,-2.92896866028836,0.00001868394113721073,0.000011910798435980278,-0.000020630053199043448,0.000009923953909061758,-0.000005729623946450564
0.026755852842809364,-2.9053271879520355,0.00003300066188457814,0.00001816981039339451,-0.000031471042612557035,0.000010829529675277134,-0.00000625244538851978
0.033444816053511704,-2.8818625307549595,0.00005180508915479569,0.000025182987469554283,-0.00004361823892191529,0.00001115187385146222,-0.00000643854467493399
0.04013377926421405,-2.858567102116118,0.00007573147550941624,0.00003277107024025039,-0.00005676119277898788,0.000010829456419642589,-0.0000062523308883945815
0.046822742474916385,-2.8354461940637212,0.00010521661799449338,0.000040687811910405097,-0.00007047342953641249,0.000009789485941350444,-0.000005652004379088938
0.05351170568561873,-2.8124905686131583,0.00014021018857541165,0.00004867171622860267,-0.00008430198872682188,0.00000798701758666074,-0.000004611338447757536
0.06020066889632107,-2.789696547981552,0.00018109337746401296,0.0000564804905903705,-0.00009782708113090722,0.000005307544423942901,-0.0000030643737125532724
0.06688963210702341,-2.7670813466562953,0.0002281184891768763,0.00006384002825470641,-0.00011057411746673568,0.0000016109537505275724,-0.0000009301875153104273
0.07357859531772576,-2.744623458456014,0.00028182180569849097,0.00007045808401872332,-0.00012203694764951849,-0.000003283470985813028,0.0000018957517952972953
0.0802675585284281,-2.7223402687119873,0.0003432635539313348,0.00007597272043715352,-0.00013158870763698124,-0.000009615457951660693,0.000005551701624552073
0.08695652173913043,-2.700224197047573,0.00041245456650339707,0.000060499825346430866,-0.00012851158729297637,-0.000010884911518358812,-0.000000997853814742497
0.09364548494983277,-2.6782569577117705,0.0004906863395089811,-0.0000318416789134981,-0.00008348408048885462,0.000014643443786414411,-0.00004831110951884612
0.10033444816053512,-2.656453275109812,0.0005767257573735715,0.0000644302868140262,-0.00012819567321299504,-0.0000027688970294380507,-0.00000800444240284079
0.10702341137123746,-2.634821044461442,0.0006721907621223186,0.00010120360816117551,-0.00013919421015371868,-0.000004295241041829746,-0.000009014608798242874
0.11371237458193979,-2.61334907954395,0.0007774775613484588,0.00007865134422037526,-0.00011656589321931571,-0.000037213186546504804,0.00001594247515509739
0.12040133779264214,-2.5920368431939766,0.0008931495956592562,0.00006371334996373832,-0.00009119755153189007,-0.00006569869982986784,0.000035152482078357056
0.12709030100334448,-2.570871738691274,0.0010205997848114962,0.00004472953165623442,-0.000055915328730165047,-0.00009854130493316295,0.00005562087706902634
0.13377926421404682,-2.5498769717792182,0.0011604664304123292,0.000018883383518065828,-0.000007557845996222704,-0.00013876245064603913,0.00007917511000695392
0.14046822742474915,-2.529022678083832,0.001310700113910506,-0.00001615889662494314,0.000057438829625421436,-0.00018933993534495547,0.00010727468312512063
0.14715719063545152,-2.508334917094812,0.0014748480668116367,-0.00006302205475657163,0.00014332012111506408,-0.0002538072461375091,0.00014147316181697538
0.15384615384615385,-2.4878169290643704,0.00165782521582092,-0.0001249603422098178,0.00025564355840216376,-0.0003368944220926063,0.0001837606369259093
0.1605351170568562,-2.46743541330492,0.0018518746303953226,-0.00020638248984396025,0.0004019516547541452,-0.0004452518519769058,0.00023690535735828506
0.16722408026755853,-2.4472290304159166,0.0020622144200125197,-0.0003132728811143363,0.0005924950683199907,-0.0005883433157727932,0.0003048233488218424
0.17391304347826086,-2.4271864725260204,0.0022937514690091142,-0.0004536873899933626,0.0008411272365437068,-0.0007796567036998125,0.0003931568721209228
0.1806020066889632,-2.40728456600391,0.002539903556734176,-0.0006381984874783079,0.0011660577516461278,-0.0010379045754095885,0.0005098960572119418
0.18729096989966554,-2.3875613681230985,0.0028049162186188485,-0.0008814025755979616,0.0015924448256217011,-0.0013904948488337888,0.0006669920244570326
0.1939799331103679,-2.3679809452031066,0.0030948389699704468,-0.001205206581900357,0.0021581193490865114,-0.0018803933991712034,0.0008837777441898698
0.20066889632107024,-2.3485396325751253,0.003405976939953412,-0.0016412074407519174,0.0029176108505984933,-0.0025737104310888997,0.00119088882963413
0.20735785953177258,-2.3292958517386815,0.003735221664407623,-0.0022338927956486185,0.003947760647400849,-0.0035711717855648494,0.0016367552116137532
0.2140468227424749,-2.310187669227449,0.004089264749700965,-0.0030624909270192753,0.0053855279892426194,-0.005061123331128771,0.0023144609497027656
0.22073578595317725,-2.2912603648848457,0.004464118745005799,-0.004247321839225647,0.007438982690144423,-0.007361715897301951,0.003387533632766573
0.22742474916387959,-2.2724921340928574,0.004859301228291221,-0.005985919684931739,0.010449877355484576,-0.011048847624831163,0.005161200729344494
0.23411371237458195,-2.2538973692914537,0.005265747114740666,-0.008624329059736091,0.01501711760890384,-0.017255562236622175,0.008252190172026833
0.2408026755852843,-2.2354765493539004,0.005678206462875672,-0.012797973540179308,0.022240649622507314,-0.02838005106595982,0.013992954309119092
0.24749163879598662,-2.217245375838095,0.006060474648937165,-0.01972258458651608,0.03422543482322467,-0.04998143034071614,0.02552358098721206
0.25418060200668896,-2.199225438881406,0.006333208476120543,-0.03173736449829343,0.05502221455399001,-0.09653350803720155,0.05110753921170711
0.2608695652173913,-2.181445936251805,0.006252835979226662,-0.05190722686146859,0.08993847492017092,-0.21085656649680706,0.11534750278893623
0.26755852842809363,-2.1641042198007354,0.004387534169436167,-0.05557537111130514,0.09626527784533986,-0.4899693867193506,0.27462919640857175
0.27424749163879597,-2.1471695347075674,-0.0007294372620189056,-0.02468251802910831,0.04276805221819563,0.1656334817555679,-0.10452643620135155
0.2809364548494983,-2.1301554904538555,-0.008204822035963018,0.0403634237683475,-0.06984286228582909,3.0105259319090147,-1.7477516197627263
0.28762541806020064,-2.1120243471119937,-0.009909932999553664,0.14837091402156705,-0.25708770571759804,5.435982506940482,-3.1615465659785302
0.29431438127090304,-2.093436536603607,0.00011658281656713187,0.15788696689156975,-0.27302984983289674,7.703091743963987,-4.479686817983655
0.3010033444816054,-2.074223655547054,0.01707073022191586,0.2427039175503773,-0.41989647206474306,10.146645191573784,-5.931568203839693
0.3076923076923077,-2.0564274879320985,0.02110077099056717,0.20270256613871546,-0.3523304988753592,7.739866794048811,-4.532115485705975
0.31438127090301005,-2.039517721842508,0.02038048271405333,0.21291749603942497,-0.3695039639520151,6.934687889332372,-4.083954444125567
0.3210702341137124,-2.0228554742442957,0.020170119944993067,0.20351649430722013,-0.35306343790971156,6.721232126447086,-3.981837708818596
0.3277591973244147,-2.006345269037311,0.02054786544873435,0.1810359169428591,-0.31440124414262244,6.687181765584814,-3.993287896152827
0.33444816053511706,-1.9900023431141136,0.021211096773805522,0.15813923141932454,-0.2741982039729402,6.708930128355354,-4.045977207003988
0.3411371237458194,-1.9738375431850186,0.022274189586687226,0.13710012441745859,-0.23692275875902513,6.79259365666866,-4.133078995506769
0.34782608695652173,-1.957821348550299,0.02364186114324175,0.10723194215691856,-0.19754450392682602,6.908960431021844,-4.2249062613085755
0.35451505016722407,-1.9420153783593845,0.025308554197530236,0.09337909618435375,-0.1676026145433435,7.1131892608080705,-4.3692102625532705
0.3612040133779264,-1.926370228986102,0.026979433045045922,0.07806290782137396,-0.13835226195710779,7.34132281427999,-4.498687825358539
0.36789297658862874,-1.9108846542693625,0.028858727802632603,0.06110985855945716,-0.10913147404620008,7.571781185041829,-4.569203515196878
0.3745819397993311,-1.8955630536763273,0.031107288195229052,0.044651938672664385,-0.08052019934322885,7.804562657104381,-4.557358099132333
0.38127090301003347,-1.8804740688864885,0.033292658462489626,0.027414136371186375,-0.052581821586674196,8.132704814243102,-4.497629108401822
0.3879598662207358,-1.8655666192355977,0.03586614885338691,0.009826176947880858,-0.023145086691330863,8.459862343270098,-4.298896418260179
0.39464882943143814,-1.850829606522125,0.03848312453289472,-0.009159102145358531,0.00901190444931892,8.933185144749261,-4.123935406228462
0.4013377926421405,-1.836265866919519,0.04102679291082465,-0.030355887797640518,0.0454976216565012,9.621531949094358,-4.049937554012227
0.4080267558528428,-1.8219472145110565,0.04350981316891234,-0.05679522258397353,0.09404415100780392,10.665265876677612,-4.2127430630377
0.41471571906354515,-1.807838124782164,0.04453338813636946,-0.08611579927432425,0.153125234951135,12.385096824469441,-5.321993990823426
0.4214046822742475,-1.7939068576093036,0.03214100497942869,0.12971159469092416,-0.45669787138613105,19.97940070107068,-9.119027073486832
0.4280936454849498,-1.7801760626475693,-0.004173372309315797,0.8007760484918433,-2.310307095511385,38.025767391960805,-17.307709798021072
0.43478260869565216,-1.766814383334487,0.04017026085409248,0.06459215537720797,-0.42072940311736273,5.024395533412708,1.9620120854495404
0.4414715719063545,-1.7535802639531428,0.07163407473322157,-0.3213539910983965,0.6223700761152472,-13.248225061757076,11.408001710658274
0.44816053511705684,-1.7404650676683788,0.07813304579701603,-0.11480465385536903,0.1959039805713061,-7.497786639184701,5.5551531995539225
0.45484949832775917,-1.7276941872500966,0.08335256329567266,0.011796720240895217,-0.028087297757680707,1.5643928691909483,-0.08869931081080029
0.46153846153846156,-1.7151418869231465,0.09207162140467491,0.3093635427444152,-0.35579674106571024,9.1548529052447,-1.4372738124572995
0.4682274247491639,-1.702882995290307,0.10606611231291982,0.8661386285577172,-0.853857757185018,14.290767504864775,3.537743003960195
0.47491638795986624,-1.6910183862339896,0.12895564976444307,0.3741952165334258,-0.1170015810099535,-11.679714664080167,13.222636908535382
0.4816053511705686,-1.6793145765690694,0.1505412376686621,-0.26191074379239543,0.7378345333847253,-39.20553880655494,22.324799158807014
0.4882943143812709,-1.6680300489611701,0.14843403828846496,-0.10721987520213236,0.3133966332661014,-24.98573944523846,19.605774306369742
0.49498327759197325,-1.65700405258412,0.15276211696614123,-0.021633222645198822,0.06816777059186754,-15.431382291897513,17.339762842710815
0.5016722408026756,-1.6463867956205454,0.16726440852435032,-0.04530074660441828,0.10626946188551271,-13.253117015067087,15.789968240811792
0.5083612040133779,-1.6361526808036855,0.18583409718826438,-0.0655066562204974,0.13923927643035355,-11.657628764454415,14.660710550887659
0.5150501672240803,-1.626250356987807,0.20792604454562577,-0.08271489904953316,0.16776502096618962,-10.566810058907244,13.89562674308619
0.5217391304347826,-1.6168959796225293,0.23686001070635926,-0.0968267068032443,0.19081812262086506,-9.7296329071294,13.321590832574246
0.5284280936454849,-1.6079886507482966,0.2713761175642354,-0.10841225195131762,0.20940630486713452,-9.099392169949601,12.903423573291063
0.5351170568561873,-1.5996804489699663,0.31814008070078065,-0.1186390152143438,0.22564503761471957,-8.557758605111088,12.563196224640434
0.5418060200668896,-1.5925161168349329,0.38828798205086695,-0.12627155538047105,0.23739813788401104,-8.18529624837319,12.371773859746408
0.5484949832775919,-1.5853517846998995,0.45843588340095326,-0.13390409554659832,0.2491512381533025,-7.812833891635291,12.180351494852385
0.5551839464882943,-1.5787389214680905,0.5269948944813256,-0.14046392415326794,0.25910092566628723,-7.507336294181096,12.044294453788485
0.5618729096989966,-1.572493955720623,0.5944939206201989,-0.1463081224100822,0.2678475153937107,-7.246512415110622,11.945172883134205
0.568561872909699,-1.5662489899731558,0.6619929467590722,-0.1521523206668965,0.27659410512113425,-6.985688536040149,11.846051312479926
0.5752508361204013,-1.5600074607992747,0.6431371684750147,-0.1579156940040022,0.2850451219864172,-6.749809888260118,11.763235460365664
0.5819397993311036,-1.5537700982799545,0.5195809871050014,-0.16358107161603597,0.2931377731763426,-6.544175947634889,11.700189386148006
0.5886287625418061,-1.5475327357606343,0.3960248057349862,-0.1692464492280698,0.3012304243662681,-6.338542007009656,11.637143311930346
0.5953177257525084,-1.5403174360290446,0.29437073784146484,-0.175744635809519,0.31048705202459387,-6.122058041149871,11.556447477826374
0.6020066889632107,-1.530823588134815,0.2437475743799113,-0.18418322850629315,0.3224556906486079,-5.88029402177272,11.434628525126001
0.6086956521739131,-1.5208670020854165,0.20019210139213653,-0.19317146031413313,0.33531445768539064,-5.635122560963105,11.29056486215776
0.6153846153846154,-1.5093584431726428,0.18034088468734866,-0.20400312123084466,0.35115861748934646,-5.378522916465472,11.07189488824727
0.6220735785953178,-1.497272171661009,0.1641267606489152,-0.21586045959486982,0.36952600303505095,-5.140493809322889,10.653804931564705
0.6287625418060201,-1.4846559128026693,0.1512492664429735,-0.22865874345662154,0.3902081688342011,-4.919501114124785,10.052769219920329
0.6354515050167224,-1.4711799671483956,0.14182248077714535,-0.2443194638099349,0.4184539848751109,-4.735660765671825,8.887736104395122
0.6421404682274248,-1.4572859134643805,0.1335473560970207,-0.2622355698882162,0.45201047818675316,-4.680280484145529,7.555288774081826
0.6488294314381271,-1.4429302265936352,0.12646348536220098,-0.28303454093817837,0.49191257884223594,-4.770738027321853,6.117206754603828
0.6555183946488294,-1.4279833156413337,0.12073803660349236,-0.30920829748118867,0.5417182500808385,-5.013827046446343,4.917185286231301
0.6622073578595318,-1.4125371333546066,0.11584184751533284,-0.34261429430675305,0.6029014171623879,-5.363878270803865,4.154072968031548
0.6688963210702341,-1.396645355123352,0.11164240143646265,-0.3856729599505173,0.6788703837246104,-5.722729142175757,3.7151991686060817
0.6755852842809364,-1.3802969908587568,0.10808390302326164,-0.4436083580853296,0.7779484812415999,-6.0675767815003345,3.592448695952442
0.6822742474916388,-1.3634981103372887,0.10510846093068582,-0.5218858003898076,0.9124691905278731,-6.434928850814992,3.722277716093522
0.6889632107023411,-1.3462639241311642,0.10284273265482768,-0.6213603274107312,1.0983621455179606,-6.936724205832639,3.798509464436814
0.6956521739130435,-1.3285353333328567,0.10134748358509604,-0.7950197786712341,1.4118251973793439,-7.484286804168631,4.22068631693475
0.7023411371237458,-1.3103809935908872,0.10077754067505154,-1.1294058257352997,1.9711258376793424,-8.493876053484644,4.654521666844867
0.7090301003344481,-1.291800296776,0.09768751901794788,-1.935907901544054,3.350472288925496,-8.477973870352482,5.81112997241571
0.7157190635451505,-1.2715624766354092,-0.13486485735265744,-32.172935456054695,55.149431517149324,4.756141366913273,24.640253331396885
0.7224080267558528,-1.2507438198754095,0.007935093812294708,-3.6129310146000364,6.192055044176328,47.66585220864413,-19.574624223433773
0.7290969899665551,-1.2301298000875083,0.10273938186701137,240.33765437134204,-411.23785538773234,2.1485440297468443,-36.52020111386508
0.7357859531772575,-1.2097256051206497,0.02929368139174955,10.803241000988635,-18.499782519971973,-6.8177474221862795,2.447975719011481
0.7424749163879598,-1.1901093586986329,0.06504995057693283,0.7728813823304136,-1.3339049604989321,-2.562402637743566,1.4606393133129547
0.7491638795986622,-1.1694560991344327,0.0740427242768612,0.4104344502391586,-0.7064760615534105,-0.8613260115850888,0.4848314430961608
0.7558528428093646,-1.148168529814029,0.07601031045259278,0.23146687906863123,-0.396756971143774,-0.3756438743903967,0.20881207064961735
0.7625418060200669,-1.1263749545341575,0.07648462338935465,0.14262955814858586,-0.2430774718459838,-0.1897396490955741,0.10452053387894923
0.7692307692307693,-1.104063465969746,0.07631107357970046,0.09403940384831935,-0.159048817061534,-0.10634251633299237,0.0584687013256395
0.7759197324414716,-1.0813381010589571,0.07589173079273684,0.06530625197558665,-0.10936441484495335,-0.06456097380792525,0.0357859684993466
0.782608695652174,-1.0581795873955966,0.07548695561459154,0.047153677092987026,-0.07796665648128465,-0.04172138870594245,0.02359248347518315
0.7892976588628763,-1.0345525149596537,0.07511655275428625,0.03506037310769536,-0.05703274530553644,-0.028357442561005607,0.016569085191468366
0.7959866220735786,-1.0104553023035534,0.07478356971179849,0.026822099709214328,-0.04275065815906275,-0.020314279542248823,0.012407627210708691
0.802675585284281,-0.9858702725532731,0.07450825487403792,0.02101166070875203,-0.032655788053673106,-0.015264322497628978,0.00983916132716615
0.8093645484949833,-0.9608812103472228,0.07428420039956879,0.016650735985261608,-0.025061016895384973,-0.011835704428203715,0.00813070294184047
0.8160535117056856,-0.9354630303506698,0.07406952035579989,0.01329320981421269,-0.019199111640128212,-0.009452350216939465,0.006979856237929243
0.822742474916388,-0.9094801956412253,0.073910973580004,0.010713937924517417,-0.014685657879167759,-0.007831524831046629,0.006244213788972226
0.8294314381270903,-0.8830761039974079,0.07391900041292877,0.00864749576292543,-0.011067614792863053,-0.006687024761403704,0.005776623161477142
0.8361204013377926,-0.8562027021680786,0.07400229617221346,0.0069314804959602575,-0.008067611625550444,-0.005861809730703817,0.005498842565498209
0.842809364548495,-0.8288119479623919,0.07406831916734753,0.005517232590079547,-0.0056127325682515964,-0.005311651627356948,0.005398018912492386
0.8494983277591973,-0.8009374504569441,0.07431851176567053,0.004291813784730268,-0.003510331863679943,-0.004941753525227074,0.005427193152482114
0.8561872909698997,-0.7725689079843416,0.07462745253660594,0.003216936662307433,-0.001702749202822941,-0.004728677359477071,0.005585456091781353
0.862876254180602,-0.7436636794328835,0.07504564691373676,0.0022554630843677564,-0.00013122293607405135,-0.00465234768884337,0.005878627710171809
0.8695652173913043,-0.7142726370533454,0.07550892996379159,0.001376544315197472,0.00125404305852312,-0.00469867337047165,0.006318074766418035
0.8762541806020067,-0.684296569866867,0.07620135779170166,0.0005745791352448908,0.002468655086933339,-0.004885881467127923,0.006960368889099139
0.882943143812709,-0.6537949888464658,0.07690368231817722,-0.00013092280901442506,0.003517413605892676,-0.005240474123678709,0.007893931744796766
0.8896321070234113,-0.6227148082009595,0.07776331679126276,-0.0006447659000236238,0.004356454206786089,-0.005845146033619648,0.009342818095915275
0.8963210702341137,-0.5910497211192687,0.07876760708650073,-0.0004374217088834726,0.004648607407736246,-0.007013784712604037,0.012133016187095818
0.903010033444816,-0.5588259053593144,0.07991809633381083,0.0018597605970081205,0.0031494044777490883,-0.009765495355337373,0.018446412905219103
0.9096989966555183,-0.5259116501866505,0.08125802473253596,-0.023133919041486175,0.01931961753710811,-0.013146311393911269,0.010627910817874016
0.9163879598662207,-0.4923767564675338,0.0827847474009524,-0.005864828364966697,0.010157824035294766,-0.0009877672826346297,0.0005703166379653858
0.9230769230769231,-0.4582023369947658,0.08447010906187824,-0.006825111975686542,0.011821052659444081,-0.0009536678156207783,0.0005505736520592296
0.9297658862876255,-0.423297929888354,0.08650888477636788,-0.007874720558476763,0.013639341147028264,-0.00093511205471284,0.0005399344071850262
