# n,energy,berry,bcd_x,bcd_y,qmd_x,qmd_y
0.0000015,-3.4499956162668695,-0.000000000000000018990436218788185,0,0,0,0
0.006688963210702341,-3.4018948561761655,-0.000003857318971424434,-0.000000000000000000011097256263182001,0.000000000000000000006341394652010041,-0.0000000000000000000016266007554944927,-0.0000000000000000000008433791171399904
0.013377926421404682,-3.3543574729681245,-0.000029973523725578214,-0.000000000000000000051993408651009933,0.000000000000000000027383321597227296,0.000000000000000000005690100729870434,0.000000000000000000032532154054391035
0.020066889632107024,-3.3076303913179257,-0.00010193753052992596,-0.0000000000000000002367540133217261,0.00000000000000000028506652965503505,-0.00000000000000000006050056532408369,0.00000000000000000005086243040941603
0.026755852842809364,-3.2615025704608254,-0.0002458677224487562,-0.0000000000000000002577091008686187,-0.0000000000000000001750542755482627,-0.00000000000000000010838532543485686,0.00000000000000000010970236883872774
0.033444816053511704,-3.2160108899284197,-0.0004904103975790694,-0.000000000000000002310517335800772,0.00000000000000000033351119731687527,0.0000000000000000007810289327760962,-0.00000000000000000054018262116099505
0.04013377926421405,-3.171248806982845,-0.0008671167490140891,0.0000000000000000020064248109516705,-0.0000000000000000035440056402773425,-0.00000000000000000009867662558863492,-0.000000000000000002384314999567044
0.046822742474916385,-3.1271304666310877,-0.0014103050882064978,0.0000000000000000020048977315748096,-0.0000000000000000015664200295541714,0.000000000000000002777740731345046,0.0000000000000000020239128080710565
0.05351170568561873,-3.083645544136169,-0.002158036839594704,0.00000000000000000011040995210903053,0.0000000000000000047467986903438534,-0.000000000000000003213489013009656,-0.00000000000000000007101648699866005
0.06020066889632107,-3.040734901656529,-0.0031537611021388175,-0.000000000000000004565309466439736,0.000000000000000010349308508938235,-0.0000000000000000023947072491442253,0.0000000000000000015915892075929042
0.06688963210702341,-2.998594547016902,-0.00443919521815151,-0.000000000000000007613133731787824,-0.000000000000000012454610666363909,0.000000000000000007601213830901767,0.0000000000000000007922675439799854
0.07357859531772576,-2.9569758747289288,-0.006070432093243774,0.000000000000000010118306606704198,0.000000000000000017614433319196146,0.0000000000000000050855027196586156,0.0000000000000000038937475622259524
0.0802675585284281,-2.9161111714075156,-0.008117982026946607,-0.0000000000000000156496870984072,-0.000000000000000007533946757525677,-0.000000000000000006738744109286671,0.000000000000000002490561460760737
0.08695652173913043,-2.875745402345937,-0.010629611753570896,0.000000000000000010821911478778134,-0.00000000000000001160307055851668,0.000000000000000007371474447241478,0.000000000000000008320462515739868
0.09364548494983277,-2.8359733318079736,-0.013667496013590418,-0.000000000000000015333220508336643,-0.000000000000000010736052102508439,-0.000000000000000012487602511523527,0.000000000000000000506858655347328
0.10033444816053512,-2.79682125827758,-0.017313949804124446,-0.00000000000000010053756844404124,-0.00000000000000004158299881623464,0.000000000000000011973338786504993,0.00000000000000002317521928421298
0.10702341137123746,-2.758296707788003,-0.021690708301483015,0.00000000000000005830190208553126,0.00000000000000014733423898311367,-0.00000000000000005975123831448042,-0.000000000000000010534624580134365
0.11371237458193979,-2.7204636833829814,-0.026864178712120608,-0.000000000000000043468742288927093,-0.00000000000000006781544246531438,0.000000000000000024384684792688848,0.000000000000000015213778355303047
0.12040133779264214,-2.6832181763234386,-0.032908689577151436,0.00000000000000004739904405322267,-0.000000000000000007076447116780325,0.000000000000000011797920790774026,0.000000000000000008351034979909486
0.12709030100334448,-2.6464960999696308,-0.04002255949729792,0.00000000000000003090160546797408,-0.0000000000000002381057044019928,0.000000000000000018468830321045658,0.00000000000000001589762569208539
0.13377926421404682,-2.6105351300605686,-0.04832963162586004,0.00000000000000011304880083091062,0.00000000000000003446826525645061,-0.000000000000000035227220457075884,-0.000000000000000007339212990373355
0.14046822742474915,-2.5750799477847206,-0.05788709255982781,-0.00000000000000023850046835205374,-0.000000000000000027222637009032098,0.00000000000000009893895331398519,-0.00000000000000004903816250085092
0.14715719063545152,-2.5446663043836706,-0.06758024758190592,-0.00000000000000008846540144639203,0.00000000000000018247427784398325,0.000000000000000002151098821053917,0.00000000000000007863148403876415
0.15384615384615385,-2.52427511621057,-0.07479519880366331,-0.0000000000000001585604322462753,0.000000000000000464637853861522,-0.00000000000000017158854887768038,-0.000000000000000018489440032024963
0.1605351170568562,-2.5043348472899445,-0.08255373839268768,-0.00000000000000009389716187861542,0.00000000000000019604137970255272,-0.0000000000000002266095320413494,-0.0000000000000001077928272350343
0.16722408026755853,-2.484702059818767,-0.09098843918819924,0.0000000000000002290178001441314,0.00000000000000032270801095603733,-0.00000000000000015736887954815118,0.0000000000000000903011900109802
0.17391304347826086,-2.4651126056926,-0.10024533316911474,0.000000000000000019967147472074943,-0.00000000000000038177467953217515,-0.00000000000000006718048339771794,-0.00000000000000001063629885670013
0.1806020066889632,-2.4457622199403293,-0.11028955356850843,0.0000000000000002335595784273763,-0.0000000000000004265238082261853,0.00000000000000011496677444731671,-0.000000000000000045217570456721915
0.18729096989966554,-2.426616219525586,-0.12119498889148289,-0.00000000000000023276073523494686,0.00000000000000007333773536213009,0.0000000000000000042009604249633375,-0.00000000000000013482694821555674
0.1939799331103679,-2.4076290073179396,-0.13299728988335813,-0.0000000000000005849472934715982,0.0000000000000006395606270926496,-0.000000000000000036027637475797375,-0.0000000000000001094714416833626
0.20066889632107024,-2.3888183624436308,-0.14574792137679565,-0.0000000000000001911766002353802,0.0000000000000009567074381233758,0.00000000000000015029243589629597,0.00000000000000003004527403233431
0.20735785953177258,-2.3702589903019704,-0.15952718327628823,0.00000000000000024782850738584887,0.0000000000000010145234633652987,0.0000000000000000928426059201838,-0.00000000000000004943704757553462
0.2140468227424749,-2.351848744152014,-0.17476746302233953,0.00000000000000003194023588395433,-0.00000000000000008607438613577534,0.0000000000000002242844365879962,0.00000000000000017919736845507362
0.22073578595317725,-2.3335993166116733,-0.19129936395073752,-0.0000000000000003004655172074213,0.0000000000000002572184463786046,-0.00000000000000010591095813807015,0.00000000000000018685233707991707
0.22742474916387959,-2.3155765644793815,-0.2092363025612187,-0.00000000000000032508293939036116,0.00000000000000041500411636819265,-0.00000000000000021171706196784292,-0.00000000000000003114594315978678
0.23411371237458195,-2.2978125994938767,-0.2286483742883239,-0.00000000000000015506719055427644,0.0000000000000005163114183535791,-0.0000000000000002491645770622017,-0.00000000000000021575544218719684
0.2408026755852843,-2.2803035426324625,-0.24956325081546984,-0.000000000000000048193824819248783,0.0000000000000010762226355336181,-0.0000000000000005329853761353281,-0.00000000000000008988332812125095
0.24749163879598662,-2.2629093426948774,-0.27278474568988686,0.000000000000000029190623582434306,0.0000000000000003536465725860345,-0.00000000000000003763050960416862,0.00000000000000013456520928368137
0.25418060200668896,-2.2457416315901977,-0.2982146789767179,-0.0000000000000005778243327620566,-0.00000000000000035449491593625175,0.000000000000000046638278276153114,0.00000000000000003745629859086338
0.2608695652173913,-2.2288231184729943,-0.3257685327951624,-0.0000000000000009722932738029606,-0.000000000000001027750902708051,0.00000000000000005789326090399839,-0.00000000000000023876866591311293
0.26755852842809363,-2.212164396495899,-0.3554787575039443,0.0027061436507041146,-0.0000000000000014743688278765637,0.00000000000000017654442380943216,-0.001189258861726242
0.27424749163879597,-2.1958543265137407,-0.3885804512167191,0.02903421181892935,-0.0000000000000002687545811762928,0.000000000000000648513545754498,-0.012759556829102283
0.2809364548494983,-2.17980021275792,-0.4249700753843761,0.0333151224848083,0.0000000000000003896560331895839,0.0000000000000004017414059430854,-0.015353734427010277
0.28762541806020064,-2.163956401652225,-0.4644016656122968,0.029961229772181592,0.00000000000000021940063939601886,-0.00000000000000001800406526084787,-0.014548107057708317
0.29431438127090304,-2.148357120712091,-0.5077105446831325,0.02820201781519966,-0.000000000000001293169737540974,-0.00000000000000022161755241811332,-0.013761661275334649
0.3010033444816054,-2.1331681081640137,-0.5571127905266525,0.02614952713264884,-0.0000000000000009244069194284286,-0.00000000000000031447402242464557,-0.012634056234634818
0.3076923076923077,-2.118265290924716,-0.610828758726477,0.023869217586808402,-0.0000000000000006501647618034335,-0.00000000000000023169369534104794,-0.01136281539516061
0.31438127090301005,-2.103718791644547,-0.6699355133126836,0.021297858882125906,-0.0000000000000009423700429976424,0.00000000000000010113657062892954,-0.009942841031841974
0.3210702341137124,-2.0897226791456607,-0.7386773816965292,0.01840548588870776,-0.00000000000000009189477843505135,-0.0000000000000004764882437252414,-0.00843072919796036
0.3277591973244147,-2.0760661359904238,-0.8127654169592629,0.015425526065695137,0.00000000000000018300189503100674,-0.0000000000000006901862574669814,-0.006912365199158957
0.33444816053511706,-2.063220022168281,-0.8990081589631079,0.012348159224073865,-0.0000000000000022098580657349335,0.0000000000000009000714145411971,-0.005430205779250149
0.3411371237458194,-2.0510068441395632,-0.9975425379780338,0.009372911104236823,-0.0000000000000028848505430283524,0.0000000000000013164936743691193,-0.004043015000571503
0.34782608695652173,-2.039485361205851,-1.1095096618597615,0.006509262011821016,-0.000000000000001682495389598651,0.000000000000000450106199967183,-0.0027596093830427994
0.35451505016722407,-2.029791765273755,-1.2591383577385955,0.00425466836038158,-0.0000000000000015031333839225858,-0.00000000000000025700826739153505,-0.0017753513051349096
0.3612040133779264,-2.0217382996216564,-1.4425601078763477,0.0025465692515806064,-0.0000000000000022416848140212363,-0.0000000000000008212099171597879,-0.0010595129585809044
0.36789297658862874,-2.0136848339695583,-1.6259818580141001,0.0008384701427796336,-0.0000000000000029802362441198868,-0.0000000000000013854115669280406,-0.00034367461202689897
0.3745819397993311,-2.003618744182229,-1.779707852333243,0.0002508967929576445,-0.000000000000002799885640090311,-0.0000000000000020029412685512435,-0.00010015798823858215
0.38127090301003347,-1.9928317692191422,-1.9227973697375815,0.00006467528750783789,-0.0000000000000022904011243773743,-0.0000000000000026395721035462205,-0.000025818371805980334
0.3879598662207358,-1.9799054029295116,-2.029864057954864,0.00000000000000012752361376033515,-0.0000000000000031857127668151687,-0.000000000000000844305414497267,0.0000000000000007901001487017555
0.39464882943143814,-1.9657848524333572,-2.1171031360396597,-0.0000000000000005638818845366704,-0.000000000000004468828282039707,0.000000000000002060678686544985,0.0000000000000020268042369087343
0.4013377926421405,-1.950699756099769,-2.1929396896322184,-0.0000000000000005573497028353059,0.0000000000000004651508444721904,0.0000000000000017800455863654506,0.0000000000000013596985006625436
0.4080267558528428,-1.9352202053952605,-2.264672681966643,-0.0000000000000011617132973162628,0.0000000000000012894433733696782,-0.0000000000000008621168856634739,0.0000000000000009129386963657985
0.41471571906354515,-1.9193512848981467,-2.3324863624746963,-0.0000000000000019106451109020625,-0.0000000000000006656771440128724,-0.0000000000000040766623618698534,0.0000000000000005974197747532193
0.4214046822742475,-1.9029611982194283,-2.3956799253027508,-0.0000000000000006688066703305224,-0.00000000000000025538690527167636,0.0000000000000003219176683854407,0.00000000000000004656155730829608
0.4280936454849498,-1.8862431111770226,-2.4560140072431293,-0.0000000000000017527420833182984,-0.0000000000000005464733821582664,0.000000000000000679919280807328,0.0000000000000013842939157118384
0.43478260869565216,-1.869274618290259,-2.514129933418083,-0.0000000000000021073328944363488,-0.0000000000000019270269115491925,0.0000000000000011227467140342561,0.0000000000000019452561405199933
0.4414715719063545,-1.852068311072691,-2.5701479582539135,-0.0000000000000006537966844500711,-0.000000000000004019842269564666,0.000000000000002650852968328676,0.0000000000000007146798620976999
0.44816053511705684,-1.8345891725933814,-2.6239386612020126,0.0000000000000003789614092784079,-0.0000000000000030027198890639235,-0.00000000000000014505312649359304,-0.000000000000000751991011926638
0.45484949832775917,-1.8168632835160923,-2.675911596381465,-0.0006739504003459249,-0.000000000000000016584130782376085,-0.00000000000000006577102555077666,-0.00024733917029119544
0.46153846153846156,-1.883334279033676,3.4480963643257296,-0.003821063144884074,-0.002680846954285808,-0.024511322743543274,-0.020297254182756026
0.4682274247491639,-1.8631088817951948,3.6493747596149313,-0.004579405859056821,-0.0024194631273414917,-0.023523776083531872,-0.020798100436439395
0.47491638795986624,-1.841025655580737,3.8775797144176973,-0.005614001888042407,-0.00192012645430193,-0.02247899478099275,-0.02144019085664235
0.4816053511705686,-1.8167380253716265,4.143673556020391,-0.007116902029852012,-0.001026982205155743,-0.021430386847277296,-0.022343779783563528
0.4882943143812709,-1.78970587307346,4.464756967962406,-0.00952989940469684,0.0005662281470586236,-0.020464415993044074,-0.024346882425891843
0.49498327759197325,-1.755149126123401,4.943755114908863,-0.019480146127027496,0.008127541224547556,-0.02579056606542886,-0.03294940406399952
0.5016722408026756,-1.7186789571749452,5.56053430377995,0.000058088230775685796,0.00102400377538661,-0.020972564483815737,-0.014150178747367905
0.5083612040133779,-1.664576744077148,5.99392768978283,0.00024087500273946462,0.0030231343893417527,-0.028043918628826506,-0.020366153013885332
0.5150501672240803,-1.6342754320634816,5.839551559708965,0.0001306314036529665,0.004417465278101285,-0.03025797887751449,-0.02289949964872319
0.5217391304347826,-1.6095887804372322,5.698185494039635,-0.0009634365398972523,0.006215238213774678,-0.028484170451528252,-0.02054767374694083
0.5284280936454849,-1.5863675325259716,5.559249828782546,-0.0030362560894152835,0.008593318564747408,-0.02178677263891504,-0.012268864329750336
0.5351170568561873,-1.5644714758706635,5.4187068311733135,-0.00234118664646353,0.00938992392223725,-0.022166161364336388,-0.015293045904776094
0.5418060200668896,-1.543754319101625,5.273600534012005,-0.0026785829916371896,0.01074317759544786,-0.02050511165345213,-0.015156165959113621
0.5484949832775919,-1.524113626875174,5.120790758876233,-0.0032600665422420367,0.012157200564156681,-0.018257078098378832,-0.0142128186064977
0.5551839464882943,-1.5054738395160105,4.956852541638061,-0.003943668324656102,0.013518301174358689,-0.01564578018956341,-0.012747740171247421
0.5618729096989966,-1.4879419789430495,4.7736779189463,-0.004646803521202196,0.014729391755003051,-0.012798283010494488,-0.010856333587263338
0.568561872909699,-1.4715862566612554,4.560078054938136,-0.005284995087063359,0.015716254588603484,-0.009915132571589016,-0.008735709103961951
0.5752508361204013,-1.456647764409202,4.284095478123021,-0.005822678899979035,0.016483803794722404,-0.007175862502536668,-0.0066080715597836345
0.5819397993311036,-1.4428808731823872,3.95292681291784,-0.006274146895912531,0.0170772013685383,-0.00458179857592244,-0.004512474046530739
0.5886287625418061,-1.4287315875701296,3.7135516217976074,-0.006609568148645467,0.017433865298930058,-0.0017970281739341965,-0.0021876717934741063
0.5953177257525084,-1.4143683711536696,3.514983235252744,-0.006872156040797509,0.017657084528062476,0.0011851601410451823,0.00028016589254270985
0.6020066889632107,-1.399729586078972,3.3669880529105094,-0.0070394325167490585,0.017708221402952185,0.004438772191349076,0.0029350453694610857
0.6086956521739131,-1.3852437436837577,3.2484919066406834,-0.007048027502014995,0.017486346057664533,0.00877633191740709,0.006170319795318535
0.6153846153846154,-1.3709828304730216,3.1360179804099104,-0.006986248115871912,0.017129782377929784,0.014752503039409025,0.010319618231965904
0.6220735785953178,-1.3570097011358244,3.028352550360756,-0.006847065616030698,0.0166215793924941,0.022828630721757,0.01564304418691019
0.6287625418060201,-1.4066021823445487,3.051175756857004,-0.00963464607925796,0.015546701337728265,-0.014800520369812262,-0.0195511508434852
0.6354515050167224,-1.387896825788753,2.6646035880409604,-0.010144041194760861,0.01561093498353107,-0.010823448726785711,-0.015968913007845455
0.6421404682274248,-1.3704011371251776,2.2045776525360017,-0.010480262342503363,0.015508119325367916,-0.007669485286391282,-0.012874880095932325
0.6488294314381271,-1.3542370971446551,1.6618187252986492,-0.010668535172673145,0.015295813464028033,-0.005277752456593288,-0.010283858113731732
0.6555183946488294,-1.3387808235660972,1.0909679482887975,-0.010742555582767316,0.01500811663532511,-0.0034572848233485106,-0.00805791123433235
0.6622073578595318,-1.3221458939719806,0.689289291859005,-0.010675637604181465,0.014613344707183357,-0.0021610810366970135,-0.006031015431803279
0.6688963210702341,-1.3829187799113292,5.369023012436564,0.10611512142476548,-0.011929098667208789,-0.010345480040179099,0.2045097711920867
0.6755852842809364,-1.3532819367793891,5.39502497122642,-0.912823469134711,-0.03169392495295922,0.016428238704530036,1.0883979109301056
0.6822742474916388,-1.3148252123461879,4.828451777625729,-1.00691562749653,-0.04162209118766467,0.03286190540816899,1.3283704714055125
0.6889632107023411,-1.2802821526138055,4.293179565730568,-0.919965650969381,-0.041018274305566926,0.03422814794943179,1.2288397286673391
0.6956521739130435,-1.2489913204301675,3.8139097857264668,-0.8617758370368659,-0.03618499720227345,0.030682666470010785,1.0045203966119711
0.7023411371237458,-1.2207149844745615,3.393766515903595,-0.8867997837224132,-0.03029425842355426,0.025955165191426453,0.7724563224348195
0.7090301003344481,-1.194775403257095,3.0220692101662143,-0.971542935103434,-0.024772314520037104,0.021570750894090128,0.5850048453884867
0.7157190635451505,-1.1711432470693053,2.696184715063706,-1.0888186034556981,-0.020015485269869238,0.01786450018198558,0.4555991115225798
0.7224080267558528,-1.1498711450554708,2.410369613564873,-1.2096520764714471,-0.016078976494042618,0.014901451679505191,0.3800155201875234
0.7290969899665551,-1.130947134481547,2.1525369136239387,-1.3167237033940133,-0.012789708198986302,0.012502028825561569,0.34075868475745713
0.7357859531772575,-1.220830761906535,3.5867625553791957,0.011280962166303386,-0.019129679149674395,0.003897870538707557,0.000928643820508058
0.7424749163879598,-1.1956292291424793,3.683837370263004,0.010204245620647475,-0.01674784742209002,0.010372030765284642,0.006733215435036061
0.7491638795986622,-1.1703221668322454,3.7467518670124242,0.008374050924983676,-0.013865842155067946,0.014540323266057252,0.010164638539307295
0.7558528428093646,-1.1450659211486216,3.784630137454977,0.006286433688210299,-0.011057236956255925,0.017143642635772196,0.011825242754015676
0.7625418060200669,-1.1200161798109802,3.8004158880674495,0.004235212426623913,-0.008622246937872901,0.01865538488167054,0.01229816315673661
