# n,energy,berry,bcd_x,bcd_y,qmd_x,qmd_y
0.0000013333333333333334,-3.0999941513483904,-0.00000000000000003000961478814326,0,0,0,0
0.006666666666666667,-3.052023534037681,-0.000003971139528145092,-0.00000000019082169632362807,0.000000001147905714709098,-0.0000000006992423398370281,0.00000000007020330436902229
0.013333333333333334,-3.0046308916972597,-0.00002948068547862394,-0.0000000007919980055300038,0.000000006753423719220708,-0.0000000036219870287670534,0.0000000004496008472650532
0.02,-2.9580044468157523,-0.00009922778833613628,-0.0000000018535520539440862,0.00000001980425313855317,-0.000000010840916432069858,0.0000000011848805098536682
0.02666666666666667,-2.912501655849967,-0.000240395758282675,-0.000000005198498913593498,0.000000038880957353490075,-0.00000002179060927255835,0.0000000028310738120436676
0.03333333333333333,-2.8828024661308387,-0.00038395708119187965,-0.000000005710213662497701,0.00000005935788085059373,-0.00000003152242284497096,0.000000003976603204179539
0.04,-2.859601484385666,-0.0005297337266038026,-0.00000000561551672580135,0.00000008298076141906374,-0.000000042595268013845857,0.000000004174107211306482
0.04666666666666667,-2.836521307099691,-0.0007080189996206546,-0.000000009644977002389044,0.00000010464570040972705,-0.000000053273678556569475,0.000000005719586732932851
0.05333333333333334,-2.813676685287823,-0.0009224377833444347,-0.000000016498477177987923,0.00000012277196565004176,-0.00000006061420054337333,0.000000007593671133161176
0.06,-2.790944542357789,-0.0011729643207032162,-0.00000002316789919528452,0.00000015480870214331803,-0.0000000720990943013556,0.000000010825487031951266
0.06666666666666667,-2.7683963717483975,-0.0014614505247801024,-0.00000002324650203789533,0.00000020015188091040577,-0.00000009002734714897432,0.000000009941431651074928
0.07333333333333333,-2.7460243666409054,-0.001791322800794763,-0.000000029549159237591362,0.0000002400877218181281,-0.00000010229714511723851,0.000000010854888179762953
0.08,-2.723785774013203,-0.0021644262091457082,-0.000000036142992659502386,0.00000028657613203772215,-0.00000011400321410863012,0.000000012364706588936093
0.08666666666666667,-2.7017219934597727,-0.0025854524150985044,-0.000000044558897774886445,0.00000033726195432298185,-0.00000012543679809210133,0.000000015092125013067922
0.09333333333333334,-2.6798059286578257,-0.0030522035504233253,-0.00000004623884847409135,0.0000004186101964865002,-0.00000014961942132746363,0.00000001434537598891139
0.1,-2.658065881656678,-0.0035747670962070033,-0.00000006416782957652609,0.0000004872568396858226,-0.0000001643778846370251,0.000000020081478204781355
0.10666666666666667,-2.6364936248787494,-0.004154403252326351,-0.00000008595349343369047,0.0000005354747179048447,-0.00000017569078418912167,0.000000022731627854081957
0.11333333333333333,-2.6150432547503546,-0.00479491378045741,-0.00000009265086686630097,0.000000639281537807252,-0.00000019990906153288556,0.000000026960175041414254
0.12,-2.59381520771324,-0.0055017326627778175,-0.00000009944878995521165,0.0000007387303568068215,-0.0000002119576709680041,0.000000029856778130613185
0.12666666666666668,-2.5727779194478093,-0.00627524897525003,-0.00000011966787742496918,0.0000008344792486953621,-0.00000023055029011580995,0.00000002922848873355651
0.13333333333333333,-2.5517817415121784,-0.007119981999683866,-0.00000012150099964569805,0.000000964605494460766,-0.0000002502508304445493,0.000000031545250558515535
0.14,-2.5309739487001126,-0.008045865644488418,-0.00000014805761112800085,0.0000010682091833806578,-0.0000002753187285430984,0.00000003069384040043285
0.14666666666666667,-2.5103528551149927,-0.009060097932211485,-0.00000016267513879072322,0.0000012329459502256927,-0.00000030284093311192966,0.00000004048998661372949
0.15333333333333332,-2.4898794771942243,-0.01016940912366801,-0.0000002032163380107751,0.0000013396563030333615,-0.00000032152458892452477,0.00000004579469282045097
0.16,-2.469594517247736,-0.011355893454287891,-0.00000023102529128794638,0.0000015021502156788195,-0.0000003411258514763327,0.00000004737655261576666
0.16666666666666666,-2.4493998190031445,-0.012648756938616978,-0.00000021706898405443795,0.0000017093577190302276,-0.0000003699188504728332,0.00000004197554974591919
0.17333333333333334,-2.4293733101365746,-0.014058529260330736,-0.0000002289129684148041,0.0000019225907674682115,-0.00000040629095968646446,0.000000035650977274289414
0.18,-2.4094869417876548,-0.015575180609493026,-0.0000002733437700518009,0.000002141761892894011,-0.0000004398532896722827,0.00000005699391385176335
0.18666666666666668,-2.389797007810678,-0.01720962787723961,-0.0000003180515507673401,0.0000023023305283057765,-0.00000044294082047079825,0.00000006310020680990152
0.19333333333333333,-2.370263718532538,-0.0189862897751154,-0.00000036161524677102555,0.000002504063492845948,-0.00000047449132676808164,0.0000000620801353507434
0.2,-2.350776788521273,-0.020899921795490262,-0.0000003583402951572826,0.0000028327393977851344,-0.0000005276776282414352,0.000000049625716589749594
0.20666666666666667,-2.3315977545543904,-0.02298537422044178,-0.0000004049230712952982,0.0000031172770209047352,-0.0000005693010084237162,0.00000006361977237912086
0.21333333333333335,-2.3125184898992663,-0.025203973420701298,-0.00000046911567879671485,0.0000033438273566559853,-0.0000005437588191060728,0.00000008261354047684736
0.22,-2.2935335583799685,-0.02760854511197416,-0.000000495213470760305,0.0000036355031123612075,-0.0000005967931295459014,0.00000008440610178457379
0.22666666666666666,-2.2748009083480896,-0.030215340054829287,-0.0000005252284861222027,0.000004045306991064132,-0.0000006526411005483693,0.00000007195289467327088
0.23333333333333334,-2.2562306418338816,-0.03300729557446522,-0.0000006386439563387648,0.000004297521151968999,-0.0000006675977040906533,0.0000000893190300639371
0.24,-2.2377231893388747,-0.03602836287652053,-0.0000006886466308475905,0.000004633217337821933,-0.000000715003318570288,0.00000007218030283707852
0.24666666666666667,-2.2194028000473063,-0.03928795909858992,-0.000000719210910340866,0.00000502622894658062,-0.0000007704692992665725,0.000000051872370807452185
0.25333333333333335,-2.201232638315049,-0.04278769370346769,-0.0000007950231838200672,0.000005412859823395756,-0.0000007755021359158277,0.00000006676292180216427
0.26,-2.1832060197606076,-0.04654817699290105,-0.001322493929109494,-0.0014587381742188325,-0.0005193627196928697,-0.0004692702677462765
0.26666666666666666,-2.165366459031773,-0.050597190475490224,-0.002733674282634388,-0.0029532077137930605,-0.0010539107272364546,-0.0009762686319422359
0.2733333333333333,-2.1476931350907615,-0.05495131877197084,-0.0011349836652311477,-0.001008739976640147,-0.00038029462766089953,-0.00042517424928101576
0.28,-2.1301007261465,-0.05960795895315403,-0.0009385612495865109,-0.0008200323443807988,-0.0003212925634419269,-0.0003642732801782482
0.2866666666666667,-2.1233904226406826,-0.012951535324260957,0.22144742702359005,-0.3812120894542312,3.842598362743121,-2.2370414569750183
0.29333333333333333,-2.1047897422036677,-0.010517648846163814,0.26732985799043574,-0.46016224470378664,4.2369614718159205,-2.459132751735761
0.3,-2.0855896223084156,-0.0002049131486221449,0.26401339397879153,-0.45371331480257954,6.0785161290593335,-3.528497045525811
0.30666666666666664,-2.0657734885424337,0.014067031083204673,0.2952533853519702,-0.5068866939759165,7.5778499051135935,-4.39154320270903
0.31333333333333335,-2.045866841009427,0.029851478828322193,0.31996714815344507,-0.5485824737564354,8.4345975825597,-4.871237294674635
0.32,-2.0274295862566105,0.03886935455196751,0.2848097016186885,-0.4862613508538857,8.0306865907819,-4.618024564217915
0.32666666666666666,-2.0097193954348125,0.04544043370312817,0.25540763025284224,-0.40710684808556785,7.105024664958672,-4.052963532612502
0.3333333333333333,-1.9933002629318388,0.04651654129962301,0.23895145414301777,-0.3872874106744451,6.757403577582804,-3.835016303142875
0.34,-1.9771746378247188,0.047706595553719755,0.21859218868281527,-0.35380748966169223,6.619984873019126,-3.7164520916147943
0.3466666666666667,-1.9612071123917356,0.04948502019751093,0.1926349572206836,-0.30549021501502155,6.589757189860705,-3.647229566438173
0.35333333333333333,-1.9453926117453928,0.0516897233572743,0.16092565817766277,-0.24972350594490256,6.620507191951127,-3.6078998939674825
0.36,-1.9297629824082294,0.0542727712763489,0.12195778191468748,-0.19202866884942038,6.701800855511636,-3.586647571234289
0.36666666666666664,-1.9143466461970071,0.05690418878717002,0.08750883958769479,-0.1292965729183806,6.838510383753055,-3.6226097095425307
0.37333333333333335,-1.8990844315972375,0.05933169194384198,0.051126014342121384,-0.06419641161917444,7.03890973254054,-3.721852352965411
0.38,-1.8839901543647417,0.06123588257246631,0.01410091429447682,0.0020687809474144413,7.342746145794551,-3.9295409959677507
0.38666666666666666,-1.8690743488077306,0.06221902177091729,-0.02109132999717211,0.06730220871045457,7.788238398509123,-4.294890567821192
0.3933333333333333,-1.8543920166003212,0.05794094872949123,-0.02728104940700716,0.09546041688004452,8.58981943212435,-5.216333900629554
0.4,-1.8398943237052372,0.03171321692024286,0.38953390123869935,-0.322637834071081,10.37303257543447,-11.0675773287591
0.4066666666666667,-1.8296282137539868,-0.2742792023387788,0.04401328186499601,0.03973718547988403,-0.018746645668035234,-0.021136892743724874
0.41333333333333333,-1.815874440559515,-0.2985760773679156,0.040616416425927795,0.03667638152000894,-0.018255355139442438,-0.02039516258365369
0.42,-1.8022402147885597,-0.32493875600233246,0.03818779537895998,0.0343409452211948,-0.01749156367855474,-0.019517174743611698
0.4266666666666667,-1.7886998851623788,-0.3539215984661266,0.035947302926425916,0.03234510370936415,-0.01650854758812785,-0.018375503379902954
0.43333333333333335,-1.7757977140323549,-0.3869102409997265,0.033329021993072964,0.030011490968030817,-0.015224778569444332,-0.016926095187890275
0.44,-1.763061071694825,-0.4226312932711122,0.03049207151322972,0.027477686150992154,-0.013828929511439866,-0.01536063035865107
0.44666666666666666,-1.7505173439697015,-0.4631320953749449,0.02728658708913104,0.024604510401321042,-0.012270361610586415,-0.013625772514718148
0.4533333333333333,-1.738469127192802,-0.509424948026774,0.023841743744853264,0.021503763385906934,-0.010657700864557538,-0.011839893569571188
0.46,-1.7266258514245136,-0.5581543320741106,0.020298622188333504,0.018309560398606872,-0.009023249004466237,-0.0100335255325023
0.4666666666666667,-1.7153774379024858,-0.6194859003371068,0.01656736294774886,0.014934051925437588,-0.007404031753115086,-0.008250431958168951
0.47333333333333333,-1.704315429499647,-0.6852197065179071,0.012871773586870597,0.011589871931595627,-0.005820520161146675,-0.0065070399558710395
0.48,-1.693947115690504,-0.7673361563569375,0.009308927376061121,0.008362278847129465,-0.004369884870998266,-0.00491139478585988
0.4866666666666667,-1.684130512630936,-0.861147831968741,0.006014354713209045,0.005373755141467627,-0.0030430546545165233,-0.0034540017219981765
0.49333333333333335,-1.675852012267153,-0.9875643794319081,0.0034676961840564824,0.0030517278858058026,-0.002061377976741888,-0.0023820387722501414
0.5,-1.6675735119033699,-1.113980926895075,0.0009210376549039206,0.0007297006301439793,-0.001079701298967253,-0.0013100758225021067
0.5066666666666667,-1.6599035911997164,-1.26007745148009,-0.00002721575476098139,-0.00009919286639031453,-0.0007429838225816376,-0.0009243421867570042
0.5133333333333333,-1.652363210496491,-1.4103629827174788,-0.0006352386023032686,-0.00061026347059363,-0.0005435499603182498,-0.0006846767676371519
0.52,-1.6442917243403785,-1.5465254528243275,-0.0011570411724016142,-0.0010476362921362828,-0.0003743047449932246,-0.0004803008526084858
0.5266666666666666,-1.6331186114012644,-1.6002100187365307,-0.0011753220401631262,-0.0010546180956510249,-0.00038135957587870844,-0.0004820137104461511
0.5333333333333333,-1.6216092399263125,-1.6475908055368567,-0.001193744297052297,-0.0010633742999484558,-0.00038826378609176955,-0.0004839217767595262
0.54,-1.6094433353254396,-1.6826636823085872,-0.0012124426113082254,-0.0010755949602175195,-0.00039487391466717724,-0.00048621098084965605
0.5466666666666666,-1.597294308083073,-1.707796395336604,-0.0012317708518011221,-0.0010895938025663678,-0.00040024084832118327,-0.0004881804782101698
0.5533333333333333,-1.5851501133740098,-1.7280235556481571,-0.0012513922830012952,-0.0011044702448668711,-0.00040501695266753927,-0.0004900092507243274
0.56,-1.5728027169216687,-1.7353898188451182,-0.0012706906587469306,-0.0011216507303664133,-0.000409645379859463,-0.0004925219025668933
0.5666666666666667,-1.5604718869231546,-1.7374329485483708,-0.0012899912899421568,-0.0011395651839821376,-0.0004145202983652557,-0.000494772760299434
0.5733333333333334,-1.5481681208469704,-1.7307798978298496,-0.0013092956057709918,-0.0011586786905935645,-0.00041979789941514373,-0.0004965959359502031
0.58,-1.5360380633018067,-1.7128166839403167,-0.0013294347720379555,-0.0011793360515356581,-0.0004252479590717748,-0.0004981582303317082
0.5866666666666667,-1.5263852996576721,1.698589228604575,-0.0723008809819681,-0.00921232576881824,0.8442359773493154,-0.4470747622213226
0.5933333333333334,-1.5148918094879913,1.6664851639715978,-0.07956746976628293,-0.0067099130222842175,0.9459768192529967,-0.48902433193021083
0.6,-1.5037955248450878,1.6212155618139652,-0.08571191688300113,-0.004032013079275969,1.0689551668521777,-0.5295134379925042
0.6066666666666667,-1.4930960751767277,1.562792704235051,-0.09073526917581892,-0.001178789651444679,1.2131512077206783,-0.5685434428717913
0.6133333333333333,-1.4835150331888964,1.4703766858260157,-0.09358595969923272,0.0013881716429324214,1.347545663258947,-0.6028512822748294
0.62,-1.4745851225963165,1.358170018062845,-0.09517173733448397,0.0037884725453892864,1.4762336845131396,-0.6344099003977509
0.6266666666666667,-1.4660686892053767,1.2312312903639446,-0.09584861841720387,0.006179870777366424,1.596871476855695,-0.6606750799973055
0.6333333333333333,-1.4581891906755635,1.0815987780693264,-0.0951254032015837,0.008557555021817341,1.7051084127216978,-0.6787860602422516
0.64,-1.45030969214575,0.9319662657747056,-0.09440218798596353,0.010935239266268295,1.8133453485877022,-0.6968970404871981
0.6466666666666666,-1.4380394446993614,0.9017574459181139,-0.09450954443693413,0.013822592798070799,1.9383311937213152,-0.7345051040714424
0.6533333333333333,-1.4324475498832554,0.2533065811570036,-0.598898798734127,1.020784996845273,-6.182316173408012,4.412412843166136
0.66,-1.417275018379814,0.24298685205053408,-0.6580181842384332,1.1222547795303812,-6.278972569830581,4.286815532053509
0.6666666666666666,-1.4016070811887904,0.2344664423790008,-0.7334868990007597,1.249866731213337,-6.455870511249847,4.1962130028392055
0.6733333333333333,-1.3854950777640216,0.22731456824487942,-0.8161072573832087,1.4112415036179262,-6.705374115157998,4.162130242435455
0.68,-1.368937518262167,0.22129168970326515,-0.9206211776930079,1.617072833377687,-7.064480176278552,4.193662684130629
0.6866666666666666,-1.3519449941437292,0.21588616198464725,-1.080163063898875,1.9000664055303902,-7.499766661965947,4.276173083200988
0.6933333333333334,-1.3354669080852173,0.5116875013736172,-0.3703132358078466,-0.03439667704287078,-0.15907342082148002,-4.352145258187072
0.7,-1.3175065103813033,0.5265558301747486,0.25439664070792956,-0.010544317852656398,-0.21728270813348033,-4.669154089188819
0.7066666666666667,-1.2985471380924694,0.5611139383355963,0.9912225022154447,-0.006613266227157944,-0.25568007825785394,-4.64304656463219
0.7133333333333334,-1.2765230376252645,0.6090127031536514,0.5659258279507748,-0.0016858263375389513,-0.23362687518397818,-3.5220001346410204
0.72,-1.2517274466957176,0.549956475238782,-0.48823765090106086,0.001539332271515396,-0.1991720730067582,-1.6271477426287437
0.7266666666666667,-1.2286744177964262,0.41917245033736633,-0.6941008301299718,0.0027627443474882683,-0.16619147916368512,-1.6727238249046794
0.7333333333333333,-1.209207435318983,0.2889973449773873,-1.1092024589851714,0.0028235960018343064,-0.12992262604574278,-1.346045279888414
0.74,-1.1905561430940867,0.22695396347056626,-0.46288091206996007,0.003122624786450791,-0.10008485807086376,-0.9378349387365392
0.7466666666666667,-1.1716429004126736,0.2057141936262793,0.44071480091511284,0.0034872987318260566,-0.07588457765375906,-0.5811379901670812
0.7533333333333333,-1.1569657280538643,0.6040626913533954,-0.00179592447447032,-0.008655763902740145,0.01726663967564376,-0.01222980213405531
0.76,-1.135728568295862,0.5628509516675133,-0.0007278961877920471,-0.00663735902922571,0.012720314829043065,-0.007828688773867136
0.7666666666666667,-1.1181062756841416,0.5206920647547278,-0.002471084489969684,-0.002163561728121162,-0.00033166556502355857,-0.00038831631081196177
0.7733333333333333,-1.0956949281746684,0.5303645836105497,-0.002523435189019413,-0.002207499954692947,-0.0003189980874104546,-0.00037301508563338654
0.78,-1.0726954023487458,0.5398083886922032,-0.002577254411557245,-0.002253663682245434,-0.0003045451527212328,-0.0003565658251574959
0.7866666666666666,-1.0493460183284453,0.5493533133844022,-0.0026316818930576854,-0.0023007766123461066,-0.00028861882764873723,-0.000339982854225258
0.7933333333333333,-1.0257403965948941,0.5577279666891678,-0.0026855646187693132,-0.0023482227879923806,-0.00027198334496995717,-0.0003210918011500895
0.8,-1.0013959721981731,0.5670810367213083,-0.002743052062946229,-0.002396837974638563,-0.0002542624822416992,-0.0003016575750187159
0.8066666666666666,-0.9765323076209195,0.575188997969462,-0.0028006256528273306,-0.0024449179101413312,-0.0002353610328543244,-0.00028004731735235345
0.8133333333333334,-0.9514642028282131,0.58343564558074,-0.0028576458122911265,-0.0024934195299526406,-0.00021615363084772092,-0.0002570479960223814
0.82,-0.925793242100342,0.5916686794222353,-0.0029139790712250048,-0.002541208170685542,-0.0001946825072401496,-0.00023331033162313837
0.8266666666666667,-0.8997822038141358,0.5993506328479041,-0.0029701918061009716,-0.002590391465651562,-0.00017116607331325246,-0.0002085965608393209
0.8333333333333334,-0.8733078076384487,0.6072925117308435,-0.003026381893953867,-0.0026375245577619577,-0.00014808593307308313,-0.0001811010973547305
0.84,-0.8461874030898493,0.6149478549128795,-0.0030801736610207207,-0.0026846697397958858,-0.00012300553178145888,-0.0001533695213667322
0.8466666666666667,-0.8187433941618385,0.6224222594250546,-0.003134093701100723,-0.0027292740174942017,-0.00009693726594185443,-0.00012350859704898486
0.8533333333333334,-0.7906959213370975,0.6297464300774852,-0.003184793855492677,-0.002771724373953747,-0.00006961240872758332,-0.00009243825377106002
0.86,-0.7622265027932797,0.6371272938997525,-0.0032333304000027956,-0.0028129082513836993,-0.00003948685334673885,-0.00006119906467363274
0.8666666666666667,-0.7330593002213851,0.6443006595322445,-0.003278791939050856,-0.0028500145749823487,-0.000010306934965944905,-0.000028101921692318155
0.8733333333333333,-0.7035448702773134,0.6517663964156393,-0.0033160601874848202,-0.002882452200439448,0.0000198817064214315,0.000007811710544307642
0.88,-0.6736058760817766,0.6587149079423915,-0.0033506961176199535,-0.0029111965129749637,0.00005230203007281336,0.00004150371078177359
0.8866666666666667,-0.6427224092693214,0.6657759863683583,-0.0033761217864292682,-0.002931215820062963,0.00008458051713627646,0.00007860982377207344
0.8933333333333333,-0.6117344877613562,0.6728733072063142,-0.0033925415789586694,-0.002943128814692834,0.00011723300275800847,0.0001152659536199442
0.9,-0.5798254177756688,0.680432435349414,-0.0033971574396645192,-0.0029454702708937687,0.00014958659601741663,0.00015141589842424712
0.9066666666666666,-0.5473464268828516,0.6873082871021897,-0.0033884283333348083,-0.0029337958712097336,0.00018217697453022639,0.00018791897947188955
