# n,energy,berry,bcd_x,bcd_y,qmd_x,qmd_y
0.00000007407407407407407,-3.1727836403124496,0.000000013347045077265518,0,0,0,0
0.006666666666666667,-3.1255549667032145,0.0012453622946878315,0.0000000000000000026048939372551042,0.000000000000000008511687427910807,0.0000000000000000029366450140016373,0.000000000000000002683955764602062
0.013333333333333334,-3.0789890186362183,0.0025856193420291506,-0.000000000000000003438676057665345,0.00000000000000001172291876745975,0.0000000000000000018955856843009057,-0.0000000000000000030538328589986616
0.02,-3.033115227603431,0.004039595947132247,0.0000000000000000021798324034072694,0.000000000000000017269661111090513,-0.0000000000000000012824014595580891,0.000000000000000001214548933570182
0.02666666666666667,-2.9879026314056327,0.005629126447772569,0.0000000000000000030651017950792984,0.000000000000000018926975905119703,-0.0000000000000000041517190266998286,0.0000000000000000046724323772979164
0.03333333333333333,-2.943364905014477,0.007383246907861045,-0.000000000000000003488054538745995,0.000000000000000010148718189408581,0.000000000000000016143668959848958,0.00000000000000001097663368233443
0.04,-2.9081911267528966,0.008565143918227954,0.000000000000000008750430608104273,0.000000000000000034675318268543135,0.0000000000000000018627188806851156,0.0000000000000000004425382577997381
0.04666666666666667,-2.884725870796919,0.008832631042800092,0.000000000000000009034637686619012,0.000000000000000033099892049755794,0.000000000000000011118768118691172,0.000000000000000004209652499223352
0.05333333333333334,-2.862259786952786,0.009068661000977299,-0.000007078560765364796,0.000004035248427378031,0.000010555813653119091,-0.000009018973089934098
0.06,-2.8400355203524192,0.009353750740806636,-0.0002835111097649486,0.0001605174178120474,0.00042325649932407574,-0.000358725268973373
0.06666666666666667,-2.817972801450178,0.009694542177192613,-0.00008695989093539361,0.000037259492457804736,0.00013433596769434002,-0.00008269038137340116
0.07333333333333333,-2.796089327506716,0.010090982389059837,-0.00008544564057141082,0.00002931328028998263,0.00013027655191101399,-0.00006359287009546966
0.08,-2.774408533773301,0.010553793173933646,-0.00009213741381276472,0.000026024017049622748,0.00013441945050398157,-0.00005439190061129194
0.08666666666666667,-2.7528896753863203,0.011084284503606701,-0.00010208937936608856,0.000024118327244071015,0.00013845036738582226,-0.000047903086373488066
0.09333333333333334,-2.731573939148587,0.011691685767632576,-0.00011412123312706239,0.0000227393415822141,0.00013913109851052213,-0.00004240523943879592
0.1,-2.710461016708444,0.012384000608147495,-0.0001277806765950657,0.000021523682136818853,0.00013380816919946064,-0.00003735985620578929
0.10666666666666667,-2.689526921275634,0.01316840877210536,-0.00014284800790797543,0.000020274494094409436,0.00011959352793731117,-0.00003271543963993062
0.11333333333333333,-2.668807418593283,0.01405401426905737,-0.0001591046438032256,0.000018864812413205866,0.00009309788108503015,-0.00002873942134481172
0.12,-2.6482883139986795,0.015051621266335415,-0.0001763768055903676,0.00001719530423485829,0.00005019583392864653,-0.00002596825110335035
0.12666666666666668,-2.627968436638832,0.016175899624076916,-0.00019443383189944689,0.000015178987382165742,-0.000014118067928755072,-0.000025236164926202195
0.13333333333333333,-2.6078650351952035,0.017439342537253273,-0.000179150618700525,-0.000006774822683810681,-0.0000648055837069517,-0.00011118252193039943
0.14,-2.588002281240169,0.01886006959446146,-0.0001357728105917049,-0.00004889587195794992,-0.00013133932384193266,-0.00028686897647194835
0.14666666666666667,-2.568347959837752,0.020464489837822578,-0.0001711013047207718,-0.00005279777125003022,-0.0003673502983762131,-0.0003018047405088615
0.15333333333333332,-2.5489595029197574,0.0222702127513798,-0.0001927258247284899,-0.00006220164321251455,-0.0006254199008791096,-0.00033478331977562076
0.16,-2.5298213839196673,0.024333506203692984,-0.0002048075120126835,-0.00007745642558397016,-0.0009341850573417275,-0.0003924774951422005
0.16666666666666666,-2.5109446015212757,0.02669450809639027,-0.00021148630056082613,-0.00009608269019407062,-0.0013092239901338148,-0.0004659306434031249
0.17333333333333334,-2.4924029632747473,0.029446977312922513,-0.00021251580891013555,-0.00011778711519673087,-0.0017680842659775458,-0.0005557301763012527
0.18,-2.4741888864201367,0.03269719639467669,-0.00020786215815552913,-0.00014201377025421715,-0.0023145895324158477,-0.0006609291047765135
0.18666666666666668,-2.4563461192363114,0.036594738609418184,-0.00019709973384986513,-0.00016840485331339955,-0.002948056908954222,-0.0007806899069366552
0.19333333333333333,-2.4389574474344315,0.04134780568116417,-0.00018003150257200074,-0.0001964399619916682,-0.003662946396259954,-0.0009129289128310007
0.2,-2.4220990441106296,0.047298900227565666,-0.00015681471299714393,-0.0002255406626869292,-0.004447249126258418,-0.0010542942564981713
0.20666666666666667,-2.4058942883521475,0.05495722670923312,-0.00012812467839083666,-0.00025501036473913073,-0.00528090522833585,-0.0012001234462196031
0.21333333333333335,-2.390936910638404,0.06611988154393791,-0.00009444853599696888,-0.0002834118159310282,-0.006128344146603317,-0.001341134535115083
0.22,-2.377037113257807,0.08054677096822012,-0.00005763954283054468,-0.0003101855572876798,-0.006959233828000239,-0.001469549400892787
0.22666666666666666,-2.3627578481221887,0.0936837487873618,-0.00001606434131038304,-0.000337700677247362,-0.007833022870039211,-0.0015948814202139765
0.23333333333333334,-2.3461615360519947,0.09928424489505301,0.00003774983297725649,-0.0003692922174812929,-0.008862938277513121,-0.001723155019964619
0.24,-2.328166774556264,0.09938323163716374,0.00010147721724073684,-0.00040155195745277797,-0.009919498643353118,-0.0018053285038312006
0.24666666666666667,-2.3093100857576423,0.09540460589803185,0.00016934339039030276,-0.00043231034788710594,-0.010878252954149917,-0.001803356369940377
0.25333333333333335,-2.289730298606398,0.08722389616340707,0.00023631354971292946,-0.000459891181711896,-0.01160012619258079,-0.0016615344997825369
0.26,-2.2695853591841564,0.0746281106168845,0.0002952501740828962,-0.00048290897825176545,-0.011910346449039513,-0.001311242268857045
0.26666666666666666,-2.249030301215115,0.05732224385350311,0.0003376867032603091,-0.0005006762196829115,-0.011615118938309132,-0.0006775838581312013
0.2733333333333333,-2.228339180443663,0.0349279675407633,0.00035503088131841765,-0.0005132123788319161,-0.010524975182992178,0.00030611629847726677
0.28,-2.207879826888605,0.007044905009478564,0.0003410368795455972,-0.0005203288351344952,-0.008494326808403764,0.0016779923385451202
0.2866666666666667,-2.188564135433089,-0.026716810950939484,0.0002959131789915786,-0.0005187294088761793,-0.005529004586215103,0.0033847037222996586
0.29333333333333333,-2.1708374891447035,-0.06564746748220994,0.00022839759366214698,-0.0004979880707818889,-0.0017327952911799023,0.005324495574379331
0.3,-2.151757563226791,-0.10904232647555526,0.00013614692123128962,-0.0004203760642838855,0.003790545871164385,0.007809220817560052
0.30666666666666664,-2.12476929819658,-0.1479390057279957,0.00004206236283932627,-0.0002404163138699257,0.01125369111874462,0.010920748090750922
0.31333333333333335,-2.1005918698049832,-0.17278386782476624,0.000006442943282267302,-0.0001502723867109004,0.014310515711271694,0.012626228054562505
0.32,-2.078487647603405,-0.18960738873311264,-0.000017672994808851072,-0.00008741205087350309,0.016434118428771245,0.01395449704162699
0.32666666666666666,-2.055909147340177,-0.19728051996213378,-0.00003526015108483458,-0.00002449162790404651,0.018611504981338272,0.015220620683907917
0.3333333333333333,-2.0329165325442187,-0.19605081057929302,0.000008701346836147703,0.000017107850792694133,0.018325303257406333,0.015964561103571254
0.34,-2.009647630414004,-0.186948662750119,0.00033057462593733835,-0.00004650337432590056,0.0058518443013856865,0.014171658118835313
0.3466666666666667,-1.9861851809345612,-0.17043445012318253,0.0003772832090877596,-0.000045613131306475104,0.007611172474625256,0.01447009835843699
0.35333333333333333,-1.962652755994092,-0.14704463034065512,0.00040280494783410524,-0.00005981551900312509,0.009410933249561878,0.015032310538857431
0.36,-1.9390759781683773,-0.11734550798025437,0.0004090866586603314,-0.0000772960805470945,0.011839693439993556,0.015927479274605198
0.36666666666666664,-1.9196192194099342,-0.08340479688239492,0.00040296616182763017,-0.00009079057337042727,0.014450705108282539,0.01697820822675526
0.37333333333333335,-1.9038242258596465,-0.05058244815075326,0.0003340341534722333,-0.00004332512105865801,0.019246917850397224,0.021159168002966952
0.38,-1.8896698908737226,-0.019696523622108903,0.00024232760021989313,0.00003998518782262217,0.02530872915440752,0.02697258881602357
0.38666666666666666,-1.8759629564171993,0.007390230900630301,0.00032223675483168896,0.000056866639546246346,0.02835940790287367,0.02738852813551597
0.3933333333333333,-1.8625795306572817,0.03074106076385847,0.00036072359279637245,0.00009137310840610838,0.0318936730583212,0.02890197910954087
0.4,-1.8494291131772889,0.051236116402861125,0.0003736102619699401,0.0001389260723162958,0.035608638873469996,0.03107952604789064
0.4066666666666667,-1.836881042515803,0.0608011671612536,0.0004113812337462198,0.00022777561830008262,0.036186317645694716,0.03225572235481304
0.41333333333333333,-1.8248040701578347,0.0541926764458393,0.00025680938405441104,0.0005759421633503313,0.033511617957013226,0.035197124330173024
0.42,-1.8134558763164919,0.022564079574544538,-0.00019531249939141104,0.0013252662937800615,0.02580556168617809,0.04086925991034041
0.4266666666666667,-1.801763889816299,-0.01693210925144029,-0.0002762988405067787,0.001843882860904153,0.03334083866013654,0.20292114604427375
0.43333333333333335,-1.7898138414856255,-0.062333965720519066,-0.00007869890310566505,0.002189322908519102,0.05231675072292165,0.4823567041072036
0.44,-1.7776242299099703,-0.10787235606445542,-0.0002938381781787287,0.00263949747085358,-0.061972245151391436,-0.020328126684296954
0.44666666666666666,-1.7655353407280905,-0.15321456362010338,-0.0005452347806882771,0.0030699340413362325,-0.17739291862368245,-0.5314814750998905
0.4533333333333333,-1.7542591681202337,-0.19732014465831071,-0.0005656150524065024,0.0032804698498753587,-0.1592864988726784,-0.2691567695364753
0.46,-1.743459898333798,-0.24146947677654748,-0.0005814727170737797,0.0034876129658296695,-0.13909184663357507,-0.08457236288314099
0.4666666666666667,-1.7336782503935104,-0.2857121655553661,-0.0005876799801710456,0.003687516707352758,-0.11444129498630314,-0.06587128286056412
0.47333333333333333,-1.7241730495333074,-0.330315408428502,-0.000579995543395842,0.0039024659886641977,-0.09517298011430014,-0.05131735995146176
0.48,-1.7157333777099348,-0.3763083598010937,-0.0005187673702189849,0.00417540633110161,-0.09664979145377053,-0.05274811057681923
0.4866666666666667,-1.707293705886562,-0.42230131117368575,-0.00045753919704212705,0.004448346673539025,-0.09812660279324092,-0.05417886120217671
0.49333333333333335,-1.7006452157183785,-0.5017104146092634,-0.0004202960102538323,0.004635385183197077,-0.09812662254569371,-0.0547851905063097
0.5,-1.6945720145716991,-0.5918520673466138,-0.0003907562852056083,0.004794833871810523,-0.09765232860439044,-0.055126733414367024
0.5066666666666667,-1.6884988134250196,-0.681993720083965,-0.000361216560157384,0.004954282560423971,-0.09717803466308714,-0.055468276322424355
0.5133333333333333,-1.6816603927486893,-0.7604871009628366,-0.0003300976337045284,0.005118680070516021,-0.0962490344609923,-0.05563571972514715
0.52,-1.6734224289921975,-0.8176764538553696,-0.00029609043752985457,0.005292128694160415,-0.09448840232042952,-0.055484745015799954
0.5266666666666666,-1.6651844652357057,-0.8748658067479017,-0.0002620832413551813,0.005465577317804806,-0.09272777017986675,-0.055333770306452756
0.5333333333333333,-1.6557932917520986,-0.9129050746859547,-0.0002213334134110481,0.005624493902020302,-0.09041595445499917,-0.05496666629827841
0.54,-1.646189648958785,-0.9474160985974196,-0.00017934131159081317,0.005780733078723976,-0.0880025877347444,-0.05455974226270627
0.5466666666666666,-1.6360701420108728,-0.971827854245021,-0.00012952905113813585,0.005906261476168969,-0.08536420476176723,-0.054047813437960654
0.5533333333333333,-1.6257211983231885,-0.991747839794081,-0.00007623868179743535,0.006018130887995111,-0.0826257431247465,-0.053489182479962386
0.56,-1.6150742705478855,-1.002937052125499,-0.000013612577058361122,0.006081348123733487,-0.07973454758408453,-0.05283248113764018
0.5666666666666667,-1.6042965042205202,-1.0102927653754263,0.00005311265294517222,0.006123203211160864,-0.07677628979535756,-0.05213271915007437
0.5733333333333334,-1.5933277104021546,-1.007129706404127,0.0001299627092006798,0.006088760637271853,-0.07365506097900246,-0.05129429804868484
0.58,-1.5823041195703713,-1.0009492948018937,0.0002097171130821846,0.006032431768645656,-0.07048708325995824,-0.05041610201604863
0.5866666666666667,-1.5712457592674436,-0.9816414213547925,0.0002960022036590239,0.00585872278175354,-0.06713365335208814,-0.0493286204773692
0.5933333333333334,-1.5601900529398507,-0.9602696935313987,0.0003828050615783552,0.005666898874129453,-0.06375379975663292,-0.048208749469155494
0.6,-1.549319516539615,-0.9205087390298604,0.00046409738497353413,0.005320415171968985,-0.06019285948492209,-0.04681050148300213
0.6066666666666667,-1.5385277717478774,-0.8771217800656149,0.0005414615191564634,0.004951398782770743,-0.05662624651943795,-0.045375604171410365
0.6133333333333333,-1.52825358929305,-0.809916506192823,0.000593022362516104,0.004434370817436518,-0.053022371049712476,-0.04369996662260841
0.62,-1.518210914719123,-0.7354349572143785,0.0006374054282219647,0.003907341300948939,-0.04948049920946901,-0.04202316674682732
0.6266666666666667,-1.5098607981319687,-0.6077564393201038,0.0006293116415289461,0.0033071902768095577,-0.046391936940721,-0.040337869079074384
0.6333333333333333,-1.5015106815448145,-0.4800779214258314,0.0006212178548359276,0.0027070392526701865,-0.043303374671973045,-0.038652571411321474
0.64,-1.4922429582738925,-0.3625937253697087,0.000541477081284842,0.0018941052495710336,-0.0398506745725778,-0.0365600892648082
0.6466666666666666,-1.4824700976296272,-0.250721446758654,0.00042229504015179367,0.0009640354005965434,-0.03619751862367528,-0.0342434543285367
0.6533333333333333,-1.4718024656748843,-0.15211339730287682,0.0002263699858709578,-0.00022491661896299156,-0.032365165712924186,-0.03168322878052863
0.66,-1.4603412156909894,-0.06527006501803553,-0.00003762233669661147,-0.0016434843577532688,-0.028373873933629813,-0.028906950371926324
0.6666666666666666,-1.4462575484344558,0.14102507922626653,-0.0007549315244014488,-0.0023627340196499427,-0.025788289483974124,-0.026515619924403613
0.6733333333333333,-1.4281466924417776,0.38713781248131607,-0.0013126336925125782,-0.002955272813892171,-0.02432597278373792,-0.02548884413488483
0.68,-1.4044540160260701,0.6413069796037534,-0.0012962422015089247,-0.0039313800671515065,-0.02382127969383335,-0.026889278073754474
0.6866666666666666,-1.3807469490287325,0.939456169810194,-0.0020794668666087664,-0.005027821982008382,-0.019095667288052346,-0.030121859013038547
0.6933333333333334,-1.3572344297316954,1.2885275005134083,0.0002564815614990931,-0.008096713294262044,-0.031626831804066745,-0.02831837192703277
0.7,-1.3341943028912497,1.6985450758280645,0.0019097154601967865,-0.01003648896356851,-0.031838513122742496,-0.026662713315525926
0.7066666666666667,-1.314697874550316,2.0717647461327555,0.0032211820650568474,-0.011354100096897713,-0.02470529880110142,-0.023080776902329573
0.7133333333333334,-1.292426184792009,2.465350763067262,0.004711075671217716,-0.012823061909321982,-0.01606718976148884,-0.01800456702500326
0.72,-1.2725411301624174,2.896545104633096,0.005847230695758355,-0.013805597592875555,-0.008458440540042987,-0.012836039634947696
0.7266666666666667,-1.2496209895839374,3.152625967329872,0.006682361567227258,-0.01426001341961526,-0.00034845086880996997,-0.0066823131511945764
0.7333333333333333,-1.2254667791627152,3.307390534217412,0.0067809388790361575,-0.013768044033311628,0.006641803029652279,-0.0008278613243836941
0.74,-1.2009007575981925,3.4064758773351795,0.006151025218898367,-0.012486684648292782,0.011848050171350256,0.003802496898971912
0.7466666666666667,-1.1761799014948346,3.465793453390869,0.0049892123430617845,-0.010738371040712168,0.015240812916551254,0.006902243097143917
0.7533333333333333,-1.1515041232033858,3.494811046624213,0.0035560179339874515,-0.008863353947186658,0.01710472802758882,0.008593485128357671
0.76,-1.1270493519215092,3.4974578746371265,0.0020747249003850196,-0.007106940265424299,0.01779475154030377,0.009208757250989874
0.7666666666666667,-1.1030120469885782,3.4747916670223207,0.0007122282494427145,-0.005624831336566369,0.017552492153901353,0.009067848263920734
0.7733333333333333,-1.0794588696909477,3.4287848474148603,-0.00046185137445908564,-0.004420017381644582,0.016703543041701817,0.008549237573788962
0.78,-1.0566130863955148,3.3579751181541555,-0.0014195120428950228,-0.0034692800030088943,0.015451503611040517,0.007863485892413521
0.7866666666666666,-1.0346838558466231,3.2570774452232127,-0.0021563077261936526,-0.0027359436470651404,0.013959352731958348,0.007141962214231312
0.7933333333333333,-1.0142540972661402,3.112196067975346,-0.0026780845091289706,-0.0021892920959852057,0.012404809901620172,0.006479173938602202
0.8,-0.9956230431075932,2.9174322682560887,-0.003018725285925907,-0.0017892322146964052,0.010919040918540948,0.005918481293262329
0.8066666666666666,-0.9775144564185132,2.7133640409045,-0.003231160612302111,-0.0014786458963621616,0.009463025642475371,0.005432970437879773
0.8133333333333334,-0.9567856561702166,2.5982842960564927,-0.0033296899074594394,-0.001211248144943225,0.00784006186955664,0.004971822978507221
0.82,-0.9347636681366112,2.520308715245897,-0.003278890004105686,-0.0010184641292560921,0.006222757935018684,0.004605372997660242
0.8266666666666667,-0.9117762350174513,2.465890122958407,-0.003064083875553383,-0.0009102175970961355,0.004690796976534865,0.00436921120234705
0.8333333333333334,-0.8880092320582293,2.4272929004038626,-0.002662209809401353,-0.0009022307312762693,0.0032930828737824836,0.0043028170796428865
0.84,-0.8634971340552244,2.4002657574034107,-0.001999653443270586,-0.0010365357395933628,0.002044945744142065,0.004487838841595902
0.8466666666666667,-0.8383446616589989,2.382118750755207,-0.0008026723493379827,-0.0014632611900967137,0.0009251103572862389,0.00518809854239548
0.8533333333333334,-0.8124793973401456,2.3714085586265132,0.0009996285683591454,-0.0021710285680453917,-0.00003806946194376741,0.006507534576329997
0.86,-0.7860117957305424,2.3661342143761495,-0.004308020721415511,0.0012798015105297059,0.00009377042524158274,0.0014426238337960195
0.8666666666666667,-0.7589605421568131,2.3651390890029367,-0.0039819788330281835,0.0013921779704645291,-0.0004395306000508436,0.0014419109196507484
0.8733333333333333,-0.7312526838443539,2.368174896364481,-0.0036752839501876084,0.0015029933083964037,-0.0008548069079600707,0.0014646949785454783
0.88,-0.7029348998853538,2.3746964446306693,-0.003402980310547426,0.0016139379649601944,-0.001172970403886914,0.001506568667787929
0.8866666666666667,-0.6740622876571473,2.3837362108028977,-0.0031699858320297504,0.001727192570483373,-0.0014294761920522815,0.0015624707435831354
0.8933333333333333,-0.644525883068172,2.3956689477317044,-0.0029919585055885856,0.0018456418616720565,-0.001638473814958555,0.0016340596281014116
0.9,-0.6143887055146457,2.4100359452884748,-0.0028719099319265114,0.0019716645036113693,-0.0018236981539345963,0.0017214511794002888
0.9066666666666666,-0.5835815701341347,2.426926566727325,-0.0028225682817220117,0.0021090876847008567,-0.0020020282001251694,0.0018296765508351285
