# n,energy,berry,bcd_x,bcd_y,qmd_x,qmd_y
0.00000007407407407407407,-3.1992023013228916,0.000000016285055135860717,0,0,0,0
0.006666666666666667,-3.1521554411099255,0.0015180930464057615,0.000000000000000003000894742655606,-0.000000000000000004821501336235134,-0.000000000000000004809442695907785,0.000000000000000002633197084020505
0.013333333333333334,-3.105795289187668,0.0031468202907373247,-0.0000000000000000014552910264513141,0.000000000000000010812657137264924,0.0000000000000000014650057045590479,0.0000000000000000017855395044449017
0.02,-3.0601365527611963,0.004904418505265669,-0.0000000000000000006989797085217941,0.00000000000000002214011333965674,-0.000000000000000013248327213827145,0.0000000000000000011061439040525012
0.02666666666666667,-3.0151192008779533,0.006812287740354724,-0.000000000000000001106901466818726,0.00000000000000002999377523883542,-0.0000000000000000010332800322801592,-0.0000000000000000043549384925020284
0.03333333333333333,-2.970835657324435,0.008894295757960306,0.0000000000000000057253777571373154,0.000000000000000009671387455916272,-0.000000000000000021096786476659052,0.000000000000000020013255730120406
0.04,-2.927426680652389,0.011160997753849456,-0.000000000000000010376488790967754,0.000000000000000011341972057353001,-0.00000000000000003501685352256342,0.000000000000000009976286079863255
0.04666666666666667,-2.8979308367372583,0.01214404690205578,0.000000000000000003779111153133347,0.00000000000000005865118860345908,-0.000000000000000008093120844810438,0.00000000000000001714674598931444
0.05333333333333334,-2.875609948244777,0.012407464256689864,-0.0000841789419996383,0.00004535872311027467,0.00013265394569182473,-0.0001039968991584827
0.06,-2.85348698807127,0.01272371812912879,-0.00012359839428561101,0.00005952956165843121,0.00019563075968534495,-0.00013646950972711404
0.06666666666666667,-2.83155131184038,0.013101838805381872,-0.00009778791582063534,0.00003556651664582311,0.0001531855303280511,-0.00008087834541414013
0.07333333333333333,-2.8097880240274593,0.013546730553860171,-0.00010266234011189504,0.00002999930000316946,0.00015397056406394807,-0.00006670672863492623
0.08,-2.7882410490958947,0.014065203165773595,-0.0001126740066737736,0.000027049538746827597,0.00015739564341671298,-0.00005810346373360969
0.08666666666666667,-2.7668977250260705,0.01466778106753307,-0.00012526662741788066,0.000024965380397402294,0.00015797966194970524,-0.00005127053788751312
0.09333333333333334,-2.745755522232625,0.015360709363103315,-0.0001396478049670515,0.00002315392315931637,0.00015245886000569845,-0.000045174520306668184
0.1,-2.7248162534483606,0.016155329995438707,-0.0001554211302523357,0.000021343332939900786,0.00013771092419027797,-0.00003959461577294054
0.10666666666666667,-2.7040668968820114,0.017056097131836576,-0.00017233315919718947,0.000019362576710753167,0.00011017934129657731,-0.00003472498280732104
0.11333333333333333,-2.6835425466703318,0.018078420311888724,-0.00019005670603104585,0.000017090345431170376,0.00006571073022161181,-0.00003107747546210789
0.12,-2.6632359718465723,0.019237610740424682,-0.00020826376265426915,0.000014426971954415984,-0.0000006148942478488573,-0.000029465119748354174
0.12666666666666668,-2.6431527601247784,0.02055041926399298,-0.00022654794667561435,0.000011292055359559164,-0.00009448424125634957,-0.00003103095853187885
0.13333333333333333,-2.623305686353237,0.022032990655762474,-0.0002444150396146344,0.000007619171728900455,-0.000222311224268244,-0.000037271439100817246
0.14,-2.603712721139244,0.02370796916462111,-0.00026125938537260613,0.0000033578646694724806,-0.00039103676689650126,-0.00005003748619706584
0.14666666666666667,-2.5843758407350435,0.025605616395376743,-0.0002302646291127634,-0.000035308627090282094,-0.0005778829863955962,-0.00023044310344673516
0.15333333333333332,-2.5653154521944925,0.027766357027598745,-0.00020027871494757103,-0.00007707676043234123,-0.0008450728485527434,-0.00042455767519255773
0.16,-2.5465399511036018,0.030235985833089604,-0.00021345254855480473,-0.0000910758226573956,-0.001228856895831595,-0.00048392963589290416
0.16666666666666666,-2.5280589204640957,0.03307652105281454,-0.00021460697256790604,-0.00011101878677919923,-0.0016697369888483283,-0.000573865401459294
0.17333333333333334,-2.509951741643517,0.03637614966529917,-0.00020818814163863126,-0.00013414717287921663,-0.0021767948677224097,-0.0006822899888541064
0.18,-2.4922357281535277,0.040297321676831255,-0.0001942603420048657,-0.0001598939813579543,-0.002760403420902508,-0.0008076726728321189
0.18666666666666668,-2.4750675225189815,0.045144383755751125,-0.00017298939349904622,-0.00018747963272405116,-0.003412359534527447,-0.00094617940030167
0.19333333333333333,-2.4585093158966793,0.051197549496920056,-0.0001457339960900024,-0.0002159871187166793,-0.004109237804237101,-0.001091459053199725
0.2,-2.4427747101669253,0.05912523190886383,-0.00011392622759833628,-0.0002444673922603932,-0.004824491185726157,-0.001236745312370856
0.20666666666666667,-2.427885628682622,0.0690804349157572,-0.00007894814823097219,-0.00027240092508764246,-0.005540865058877907,-0.0013782577311566909
0.21333333333333335,-2.414723552560565,0.08344504987703091,-0.0000417464815221498,-0.0002978702469476215,-0.0062063854918670835,-0.0014996204390717901
0.22,-2.400257172621616,0.09385928642142538,0.0000017803710674418997,-0.0003258771428280409,-0.006935183578588892,-0.0016231519624062209
0.22666666666666666,-2.383842733518626,0.09824039958324648,0.00005491549053769517,-0.00035751208125286966,-0.007747902091034692,-0.0017436942758278617
0.23333333333333334,-2.3661272219840255,0.0978837869165795,0.00011532641499615395,-0.0003907073677116872,-0.008560271827155993,-0.0018290659908923807
0.24,-2.347340539565034,0.09297988584343939,0.0001786885721257983,-0.0004235814647220401,-0.009251296682057018,-0.0018284530256611382
0.24666666666666667,-2.327827234466996,0.0840364399814672,0.0002387415790222023,-0.00045461004841699067,-0.009707586283408762,-0.001700191894708359
0.25333333333333335,-2.307697560138947,0.07081809905793014,0.00028887047977874754,-0.0004826597927455646,-0.00978978130732933,-0.0013865233801128888
0.26,-2.2870649166943404,0.05303617155512881,0.0003214684241865937,-0.000506737100054401,-0.009342421366059962,-0.0008246821095820231
0.26666666666666666,-2.2661191219062156,0.030370017716061716,0.0003289420866076073,-0.0005255301495460446,-0.008205788100460831,0.00004322333410706927
0.2733333333333333,-2.2451141759009117,0.002371444962076155,0.00030574890631532753,-0.0005355037283991057,-0.006230756372445233,0.0012565016931924224
0.28,-2.2244107813022955,-0.031252227607607534,0.0002509496605453203,-0.0005262847174689567,-0.0032878874377189463,0.0028172513116508247
0.2866666666666667,-2.2047854842878243,-0.0704623151984688,0.00017356929339822742,-0.0004722543496813273,0.0006601888820662871,0.004633485462558089
0.29333333333333333,-2.187204712576249,-0.1109897829475252,0.00010806808413168085,-0.0003626953590146342,0.004861839468506357,0.00629393036323973
0.3,-2.165761868602366,-0.14041374910797236,0.00005850708988898311,-0.00026569989499177805,0.008024391583995174,0.0077865316442734525
0.30666666666666664,-2.134838205855976,-0.15315360689821214,0.000016366330282096688,-0.0001954982769995396,0.010215962410489911,0.009332316080801949
0.31333333333333335,-2.1087407711365826,-0.16990384698521538,-0.000012528168912009213,-0.0001329721422902955,0.012106619227939491,0.010530005981749524
0.32,-2.0873239314118583,-0.18498865019688282,-0.00003076121263683252,-0.0000825669523810315,0.01366925633112697,0.011449208682067048
0.32666666666666666,-2.065355705794639,-0.19184300424140996,-0.00004362986256875307,-0.00003329950940560038,0.015292569722535699,0.012345852079019087
0.3333333333333333,-2.042991681448087,-0.19100456181456177,0.00007915366509611625,-0.000031749616483615794,0.009516749956700914,0.01208218338474603
0.34,-2.0203357722453776,-0.18291928204293725,0.00026019518065753224,-0.00006068750037967653,0.003771982164479574,0.011380982979286752
0.3466666666666667,-1.9975074201642598,-0.16803612769352894,0.0003185105394884464,-0.00007052158233302228,0.006029356675058304,0.011711818279548826
0.35333333333333333,-1.9745391773304268,-0.1468701364790349,0.0003486948069952549,-0.00008726083239911813,0.007767138458738004,0.01222601105375977
0.36,-1.9515401982455045,-0.11999356014700056,0.000359621278628231,-0.00010463544798435667,0.009841693240603421,0.012980651831549896
0.36666666666666664,-1.9286189484602174,-0.08826144847836673,0.0003576129757868403,-0.00011972834928023553,0.012403879803752139,0.014011557191667577
0.37333333333333335,-1.9065985734139368,-0.053352934693667455,0.00034849882314001853,-0.00012777008814071145,0.01539753664184225,0.015311719678539674
0.38,-1.892970306361425,-0.023318234208841142,0.0003433207824621873,-0.00012397092325168042,0.017471289893768196,0.016280130873770043
0.38666666666666666,-1.8796217024418012,0.0031743910496701833,0.00034317552745020404,-0.00007042577973,0.02066234561723751,0.018667195353986497
0.3933333333333333,-1.8665512493594132,0.026144095072275136,0.00034803584300494944,0.00003259633797447569,0.0249646619301737,0.02246524166398902
0.4,-1.8540506085105812,0.03758376163626747,0.00038734473394043314,0.00012455931597808752,0.025201985885479478,0.02330255594553343
0.4066666666666667,-1.8419060379626284,0.0379770317769987,0.0003143573824590635,0.0003591358768188761,0.02353311616110673,0.02457269798727085
0.41333333333333333,-1.830748009836028,0.005669270715163016,-0.00014276182649371357,0.0010704077786611414,0.016928703847053726,0.02828738980358571
0.42,-1.8193424863622711,-0.03143061361726687,-0.00037851243688289586,0.0016496253843579667,0.024874890201109313,0.07964862136162615
0.4266666666666667,-1.8075041937217418,-0.07690998151863013,-0.00022717898670045398,0.0019979334866311645,0.05826418299729893,0.21432436182060366
0.43333333333333335,-1.795409803994873,-0.12287657209661973,-0.0002749185391946354,0.002389570924192212,0.07204031196996223,-0.24785535341628373
0.44,-1.783147009774659,-0.1691635508882214,-0.00045356464995399416,0.0028097008950359595,0.07291920355579834,-1.1025156784617203
0.44666666666666666,-1.7716643730814299,-0.2138184089705458,-0.000519319850386157,0.0030573906429679255,-0.031613085475994174,-0.6444167025880304
0.4533333333333333,-1.7603653665768495,-0.258352792020809,-0.0005705718664897268,0.003283667700841357,-0.13693606802920413,-0.09000292467828032
0.46,-1.7502986913646938,-0.30354257264992335,-0.0005914946351633743,0.003472701647837339,-0.1142114731527784,-0.06993607871555962
0.4666666666666667,-1.7402418942037192,-0.34874504108789495,-0.0006122175438083406,0.0036617948486026334,-0.09157281449700863,-0.04995438571851928
0.47333333333333333,-1.7321377457162894,-0.3964555784436827,-0.0005934330220155931,0.0038626010676477704,-0.0859216409429207,-0.04680534750682557
0.48,-1.7240335972288594,-0.44416611579947046,-0.0005746485002228455,0.004063407286692907,-0.08027046738883276,-0.04365630929513186
0.4866666666666667,-1.7169283115634375,-0.5090553303536508,-0.0005529438580821726,0.0042436174123650005,-0.07724138403238211,-0.04217551268122595
0.49333333333333335,-1.7111294084533626,-0.5964120186404147,-0.0005274200786205459,0.004396890528772137,-0.07764165335306288,-0.04287655893246278
0.5,-1.7053305053432877,-0.6837687069271786,-0.0005018962991589193,0.004550163645179274,-0.07804192267374364,-0.04357760518369961
0.5066666666666667,-1.699531602233213,-0.7711253952139432,-0.00047637251969729233,0.004703436761586412,-0.07844219199442441,-0.04427865143493644
0.5133333333333333,-1.6918058346020814,-0.8330575502837807,-0.0004500994463710451,0.0048718954730095874,-0.07765881638690521,-0.04449112447615159
0.52,-1.6837109192201267,-0.8901188858693231,-0.00042368282369723925,0.0050432634332065246,-0.07664867867014394,-0.04460999690371635
0.5266666666666666,-1.6752635339541133,-0.9424634408376367,-0.0003964167682105237,0.005210399979392006,-0.07544042531397192,-0.044640676899291167
0.5333333333333333,-1.6658363090566073,-0.9816957022715398,-0.00036678935371975353,0.005365773514514149,-0.07368142545748071,-0.04442618860114841
0.54,-1.6563688091477846,-1.0202721074619006,-0.0003368170714751895,0.005518911362656626,-0.07190122344719192,-0.04420091683688744
0.5466666666666666,-1.6461923591534455,-1.0473036533276308,-0.0003007741758266167,0.005632695020108247,-0.06974780568210567,-0.04378582664733516
0.5533333333333333,-1.636013115163779,-1.074275056148647,-0.0002646814395780688,0.005746101964157776,-0.06759284998524281,-0.043369779372323544
0.56,-1.625348394141363,-1.090796167015753,-0.00021992853616696048,0.005794052211534775,-0.06517066744366565,-0.04278743152968526
0.5666666666666667,-1.6146689192036219,-1.1068036258256202,-0.0001747493951799106,0.00583706738695413,-0.0627364899753876,-0.04219544602436803
0.5733333333333334,-1.6037174669397334,-1.1133422955025936,-0.00012171288524001774,0.005789108224659808,-0.060081195060006774,-0.04142579746026435
0.58,-1.5927478283888157,-1.118218421941502,-0.00006819089771252222,0.0057216660940589,-0.057391942893920946,-0.04062155951297982
0.5866666666666667,-1.5816737903076232,-1.1135506138304405,-0.000011881995405619398,0.005542380752346297,-0.05450775698367379,-0.039618759025098614
0.5933333333333334,-1.5706221465696732,-1.1050017048354197,0.00004205565277738973,0.005317990226350481,-0.051566955468908736,-0.03853952444393959
0.6,-1.5596321958885317,-1.0857609450135517,0.00008946085150256429,0.004969341682773432,-0.04847018645521087,-0.0372497253997981
0.6066666666666667,-1.5487849563234801,-1.0590248238743165,0.00012492787957879095,0.0045471329528010305,-0.04532310731466195,-0.03584279621067197
0.6133333333333333,-1.5381808272238382,-1.0195202455314814,0.0001400580600280464,0.003999613373610253,-0.042090324140057214,-0.03423633411310255
0.62,-1.5280314877460663,-0.965187750447984,0.00012876355925395085,0.003382660318669002,-0.038921547454468845,-0.03254661932036758
0.6266666666666667,-1.5185518075892643,-0.8890217477855,0.00007855978431457439,0.0026634692794210244,-0.03584701773475479,-0.03073431830175482
0.6333333333333333,-1.509267314166757,-0.8058712989388221,0.000006410928382051934,0.001910875353391574,-0.032824930530176856,-0.028889482649688304
0.64,-1.5007356537663776,-0.6957819203142455,-0.00015037985623801679,0.001029446871599956,-0.030005113512149094,-0.02691916128510462
0.6466666666666666,-1.4922039933659985,-0.5856925416896708,-0.00030717064085808297,0.00014801838980835246,-0.027185296494121373,-0.024948839920520972
0.6533333333333333,-1.4813618904941914,-0.4730235932129867,-0.0007523388657828808,-0.000870587851698752,-0.024232334748127873,-0.022469766199746232
0.66,-1.4698022154382244,-0.35955348755716476,-0.0012870707272235756,-0.0019317984626608324,-0.02123802120288499,-0.019832685281673562
0.6666666666666666,-1.453882986226512,-0.03664237733524789,-0.001313226259081192,-0.002314902858785967,-0.020617919949243477,-0.020116459025613438
0.6733333333333333,-1.4372393182570258,0.3244697371262515,-0.001320264012670246,-0.0027578205125177455,-0.020103798934301757,-0.020627705646860586
0.68,-1.4183830856078492,0.6665523792262967,-0.0013703714077074496,-0.003379536807290612,-0.019396548881844052,-0.021410056877576786
0.6866666666666666,-1.396407081788408,0.9643585420665168,-0.0023001705091763693,-0.004009966118901158,-0.014545928693570747,-0.023871299001681123
0.6933333333333334,-1.373896966274981,1.2857343936262873,-0.0011538981093099877,-0.0060577451664158115,-0.020213727073958056,-0.023459565400733403
0.7,-1.3518502528727432,1.6589199770381609,0.0009776265041237376,-0.008256121630514954,-0.02618909819759259,-0.0213206729409959
0.7066666666666667,-1.328594847075614,2.0936451551785984,0.002349479463079533,-0.009894503088380437,-0.02346140966874089,-0.019981563735517755
0.7133333333333334,-1.3028968739220184,2.6388570993544986,0.004171424753413226,-0.011783980010898159,-0.01945689005106597,-0.017282803793762597
0.72,-1.2781260628882676,3.1377037301447954,0.005925352885875158,-0.013156753176914482,-0.014085342602708599,-0.012984069156115236
0.7266666666666667,-1.254531590081444,3.374888786448174,0.007103139288952379,-0.013559108885204051,-0.0062571950519433265,-0.006972469527001278
0.7333333333333333,-1.2299856205875064,3.5375645687926203,0.007510309596106915,-0.013082577562237581,0.0004030436218414699,-0.001315839673123613
0.74,-1.2049633679325182,3.6505857723770467,0.007092141035404773,-0.011772481445700898,0.005408846766893519,0.0031472419367482222
0.7466666666666667,-1.1797704186918374,3.7274696308518465,0.006060841935136171,-0.009961438082812359,0.008808956278197076,0.006093650311161062
0.7533333333333333,-1.1545492454195148,3.7743785595136377,0.004712775531943468,-0.008046190248504165,0.01090284774109285,0.0076126488878414875
0.76,-1.129510938499192,3.7969642962292696,0.0033281169529079026,-0.006335853396705888,0.012110444666710242,0.008142111833851069
0.7666666666666667,-1.1047387635355943,3.7994781644620024,0.0020436804182107655,-0.00492854351437736,0.012740611188903132,0.008121721245209967
0.7733333333333333,-1.08032140778233,3.7827542387327955,0.0009097149318259142,-0.0038296979678970194,0.012910061778824172,0.00779376435116874
0.78,-1.0564183868962005,3.7465087162118875,-0.00005696879193710163,-0.0030032327604112884,0.012686698242946827,0.007316222444762811
0.7866666666666666,-1.0331781633530377,3.689674609781549,-0.0008540530403372366,-0.0023961828235755612,0.012125408081967123,0.006786761904089731
0.7933333333333333,-1.0107444118370996,3.60889487106634,-0.0014851909930763474,-0.0019602631026908062,0.011299159503418862,0.006269856092444316
0.8,-0.9895181484726352,3.497260124619405,-0.0019474630362168286,-0.0016591495281786338,0.010301668848234144,0.005812795159306376
0.8066666666666666,-0.9701088461785334,3.3381889230639725,-0.002252258041013748,-0.0014613442163020755,0.009260111338819293,0.005446201559368964
0.8133333333333334,-0.9528919979356159,3.1274673780848476,-0.0024149175719014367,-0.0013454292564638512,0.008270560978500652,0.0051849035189169305
0.82,-0.9334654123902429,2.9802920456210567,-0.0024784345653088794,-0.0012737436686345576,0.007124101519415606,0.004973246020346909
0.8266666666666667,-0.912184709020601,2.8841150115873946,-0.0023664104738239274,-0.0012806267284982118,0.005867314059855171,0.004884368365617069
0.8333333333333334,-0.8897083215597371,2.816318284527314,-0.0019396963157356697,-0.0014361931214762417,0.004571855387778985,0.005059483532941884
0.84,-0.8662941910512562,2.767307976866369,-0.0007036543949312877,-0.00200594845548383,0.0032417706964584687,0.005971969266463584
0.8466666666666667,-0.8420405809437217,2.7326772542756803,0.01387207938671935,-0.010136374257099696,0.0003352069191256532,0.019246807519955923
0.8533333333333334,-0.8170081645923966,2.7090648225748417,-0.004951461689532521,0.0009986183450372075,0.0018651879933554542,0.0016110401505596804
0.86,-0.7913084322134427,2.6931146552913496,-0.0047284574258337556,0.0011258246321551749,0.0010199361637421005,0.0015503469388526794
0.8666666666666667,-0.7649508416258664,2.6837730114419607,-0.004472254627551685,0.0012492298445498824,0.0003090004477171651,0.0015243831778042544
0.8733333333333333,-0.737891887897914,2.679842439373471,-0.004197538820414001,0.0013694156960838105,-0.0002714393897645375,0.0015279717033642656
0.88,-0.7101851579648892,2.6808741454764857,-0.00392212651190587,0.0014871291719565814,-0.000729484756825004,0.0015559841080269351
0.8866666666666667,-0.6819007350574198,2.6857775186702613,-0.003660190024252286,0.001604447251939378,-0.0010999224624959362,0.0016007212321025755
0.8933333333333333,-0.6529121623300881,2.69440505144431,-0.0034255826062401596,0.0017236246911637389,-0.0013972141532462095,0.0016608357293165668
0.9,-0.6232818615118326,2.7064758076836197,-0.003232413119615359,0.001847090153773699,-0.0016406976043201547,0.0017356453902781087
0.9066666666666666,-0.5930454265274882,2.721380063124551,-0.0030871208950541225,0.0019769512054228894,-0.0018540891285292983,0.001824901732238721
