# n,energy,berry,bcd_x,bcd_y,qmd_x,qmd_y
0.00000022222222222222224,-3.2563030599315983,0.000000031286277226275394,0,0,0,0
0.006666666666666667,-3.2086866278593305,0.0009696606272560069,0.000000004686747797583449,-0.00000000463987682318054,-0.000000002113828393696598,0.0000000018652957156165794
0.013333333333333334,-3.1617589865241027,0.0020096525893992523,0.000000011139164851308441,-0.0000000062197100799943985,-0.0000000037700412396596384,0.000000007143581192594195
0.02,-3.115532490341456,0.003138669802863536,0.000000019643357905308712,-0.0000000081100088235825,-0.000000005630230171344053,0.000000016629408260592503
0.02666666666666667,-3.0699406538181093,0.004378553564397475,0.000000027756535856522898,-0.000000011357185546354715,-0.000000010057688556975572,0.000000030242323368458016
0.03333333333333333,-3.0250244502501644,0.005754771704888608,0.00000003846339443596727,-0.000000013795502990372505,-0.000000014310540859780871,0.000000052489362689306284
0.04,-2.9808127533029816,0.007297691915950951,0.000000053245911528170445,-0.00000001886253716246251,-0.00000002524110564622748,0.00000008450793629662139
0.04666666666666667,-2.9372193753277376,0.009044709691597206,-0.000011644081939441938,-0.000003033616014673728,0.0000011776257812018395,-0.000019318076172341252
0.05333333333333334,-2.894390474365103,0.011032885684910334,-0.00018584530759401723,-0.00006177013673208856,0.00008426612213618263,-0.00030312572567065357
0.06,-2.8521814353516124,0.013311126356341534,-0.0001910305888295859,-0.00008745758419065345,0.0001493823032042639,-0.0002833978806634946
0.06666666666666667,-2.8106935991263904,0.01593032303660497,-0.0002280253281856397,-0.000124969227433121,0.00019624861655849796,-0.0002826663644027285
0.07333333333333333,-2.7831442869249643,0.017482645280645512,-0.00026174747000626893,-0.0001563814832806054,0.00020696479463722177,-0.0002660282318186536
0.08,-2.7613388949064164,0.018566639076862748,-0.00029234308563886403,-0.0001850065109855052,0.0001963471882292936,-0.0002369977331513385
0.08666666666666667,-2.739722558497963,0.01978348260532925,-0.00032621346133299107,-0.00021698575282433553,0.00015893327110414856,-0.00018687084555558126
0.09333333333333334,-2.7183170151313054,0.021152370934535855,-0.0003630949886729409,-0.00025235936461235074,0.00008325240253915859,-0.00010847870299119088
0.1,-2.697079560572455,0.02269278319857214,-0.0004027198241998272,-0.0002912355853772834,-0.00004605389745372104,0.000007312613579106903
0.10666666666666667,-2.6760599979052375,0.024426442336927763,-0.00044454055431376237,-0.0003334970539517052,-0.0002483602153385494,0.00017106672821912212
0.11333333333333333,-2.65523785513057,0.026385759008633446,-0.00048804855677750164,-0.00037873679001857466,-0.0005488173492819934,0.00039590983896531005
0.12,-2.6346167703097576,0.02860483626431622,-0.000532279095727789,-0.00042671046154900286,-0.0009787537547826797,0.0006975842304854481
0.12666666666666668,-2.6142294305765725,0.03112696097847792,-0.0005761822259657093,-0.0004764573192068277,-0.0015757242244589821,0.0010934049602772246
0.13333333333333333,-2.594050439144791,0.03401341761808689,-0.0006184335018298938,-0.0005270535899242611,-0.0023865657303115562,0.0016044674289488572
0.14,-2.5741100954496754,0.03733817097328669,-0.000657381201990391,-0.0005770834847560209,-0.0034639345789835817,0.0022525405202982684
0.14666666666666667,-2.5544469294370584,0.0412010058851374,-0.0006913272202480213,-0.0006245389143921155,-0.004865927635627626,0.0030580872141728146
0.15333333333333332,-2.535083707315021,0.04575604001435988,-0.0007183480032827863,-0.0006674067791244332,-0.006655662796965734,0.004041563244324595
0.16,-2.5160650973129397,0.05135010729351479,-0.0007347895970235611,-0.0007025760656422551,-0.008966524351703526,0.005252356833376924
0.16666666666666666,-2.4974805062566197,0.05830578837060145,-0.0007391967747731198,-0.0007272891864044755,-0.011812605865970084,0.0066662667234623895
0.17333333333333334,-2.4794495433953068,0.06728514224340056,-0.00020372284714317488,-0.0005776110287447864,-0.015778918078077634,0.0073416101127472015
0.18,-2.4623426381268785,0.07984611740912331,-0.00008954248852140222,-0.000584724502750842,-0.01975699994308182,0.00888861523521407
0.18666666666666668,-2.4461789562961855,0.09635465846237519,-0.0003675625079260434,-0.0007173516905053023,-0.02371237335388848,0.011256198467099575
0.19333333333333333,-2.430939228770204,0.11719766049970315,-0.0003319688306454858,-0.0006983480898252903,-0.02843964319398228,0.013286788971259166
0.2,-2.41276108988208,0.12929952859613872,-0.00024009025319448219,-0.0006506480212062296,-0.035142814856266656,0.01606262675248325
0.20666666666666667,-2.392924172080345,0.136433060496485,-0.00010043025973529688,-0.000571752395107984,-0.043541662166370405,0.01944357417806327
0.21333333333333335,-2.3717195655685877,0.13947347653320566,0.00008276392567888331,-0.00045518927935116313,-0.0538965332849783,0.023379800197852494
0.22,-2.3493257331780244,0.1387196160069263,0.00030582829416271314,-0.0002973592993287802,-0.0662988948036736,0.027852943718597967
0.22666666666666666,-2.325844841498845,0.13426996788424625,0.0005558900801005622,-0.00010016642668744715,-0.08051551894103177,0.03261306751728206
0.23333333333333334,-2.301374860430717,0.12609882905385725,0.0008193503624798264,0.00012881329934139165,-0.09659702664272021,0.0377715862029032
0.24,-2.2758448893265637,0.11367272248157748,0.0010711966065881508,0.0003729630399148087,-0.11400861794923499,0.042941361708347295
0.24666666666666667,-2.2513115297793647,0.09393162449132839,0.001265908371468589,0.0005961754754804996,-0.1315830951546476,0.048074102151665854
0.25333333333333335,-2.231237827781251,0.06466441325906275,0.0013916958036791246,0.000756516972827881,-0.1469119111021329,0.05247455802432826
0.26,-2.21389526986438,0.033958793790676206,0.0014949495561105525,0.0008612869882607911,-0.160975424071104,0.056283012466566855
0.26666666666666666,-2.1967464185403798,0.0076137641996474464,0.001549029954943914,0.000930311895413859,-0.1758612920119093,0.06089747584365905
0.2733333333333333,-2.1798920764887235,-0.0149294360492855,0.0015591778437584127,0.000954650316022895,-0.19295498596041646,0.06713390728332945
0.28,-2.163265601848993,-0.0350635313593848,0.0018594133504630337,0.0011801239144726696,-0.24226862081757794,0.09215704860680289
0.2866666666666667,-2.146880074807188,-0.053086137048309716,0.0021088947977272537,0.0013533116882321113,-0.2993220544240888,0.12177176746738654
0.29333333333333333,-2.1307477580709593,-0.06922324484179329,0.0020378264254978153,0.0012640854373600252,-0.34546243394934734,0.1491049653645289
0.3,-2.1150094238353585,-0.08293500266918552,0.0017326862200457605,0.0008626086893586569,-0.4060028843398527,0.23135394503841644
0.30666666666666664,-2.0996188933877002,-0.09483477247607425,-0.0039046303504381616,-0.002256848103850466,0.6005555856421311,3.0237649097535444
0.31333333333333335,-2.084661418792648,-0.10011281929246228,-0.006723984458835198,-0.003969894511483876,1.1307967255174463,4.121814451289827
0.32,-2.0702945085846207,-0.09384857146441682,-0.00025837839510988066,-0.0010082658124526992,-0.027189218140488025,-0.007592468279677966
0.32666666666666666,-2.057849975544603,-0.0847405615379282,0.0013983459584210995,-0.00011760923908918282,-0.21357960977128954,-0.2553058107163913
0.3333333333333333,-2.0458668109880014,-0.07651974682436129,0.0020949032883254065,0.00048763016711423377,-0.23549587849343262,0.06498339158694842
0.34,-2.0350823769494157,-0.07844131458771363,0.0012651609548524718,0.0014078554786697058,-0.17312269358868065,0.04565788490784213
0.3466666666666667,-2.023863416366761,-0.08144546154272275,0.000489946624973999,0.0023166693047766357,-0.11619448501350303,0.028853461597378185
0.35333333333333333,-2.0101692063634258,-0.09061644353591962,0.000025347172713928987,0.0031604784191320966,-0.09028319517286101,0.026410209619000403
0.36,-1.995627015045338,-0.10054642383211754,-0.00045660736623847064,0.003938241539099052,-0.07509441895604445,0.024884307870293564
0.36666666666666664,-1.9803158374287178,-0.1109077196648673,-0.0009532692959514565,0.004664644675725742,-0.06822475389952701,0.02401028396253781
0.37333333333333335,-1.9641669622609896,-0.12096467860819701,-0.001462846818099223,0.005360807110640435,-0.06618612720719029,0.02330405554756665
0.38,-1.947268307947724,-0.1298277793429587,-0.001972341426277793,0.0060462942041569125,-0.06632911296524613,0.022524279896539514
0.38666666666666666,-1.9297548398308824,-0.13717588202652356,-0.002478307448131241,0.006730828677831223,-0.06764019583535873,0.02161903610407909
0.3933333333333333,-1.911684714320975,-0.14253556784398236,-0.002966707298980811,0.007410584644919497,-0.0698453889229117,0.02055648831079968
0.4,-1.8931427902547115,-0.1452551967242345,-0.003420934131845418,0.008080767291797113,-0.07275969023266007,0.019318676865040293
0.4066666666666667,-1.8741864755983164,-0.14438641622565423,-0.003830139221906719,0.008736507758304968,-0.07633910037422209,0.017912373050243947
0.41333333333333333,-1.8549148564671156,-0.13890425278927518,-0.004187979209725538,0.009358225020493762,-0.08060234034518023,0.01641040796288252
0.42,-1.8353124717728198,-0.12699818203950913,-0.0044621688926722155,0.009957667608569224,-0.08582874986695023,0.01483497350743413
0.4266666666666667,-1.8156571026385384,-0.10610851599459768,-0.004632166511257114,0.01050269966692823,-0.09224993036370627,0.013597858904682443
0.43333333333333335,-1.7961294282554123,-0.07364094179260446,-0.004665613204410029,0.011050382545121612,-0.10050733290694566,0.012532981522323104
0.44,-1.7770754107467945,-0.026574595861277174,-0.004571825366719756,0.011712110549999216,-0.11134660194273573,0.012122859848212651
0.44666666666666666,-1.7624354729892326,0.0318335432064079,-0.004609194238224724,0.012232690876818183,-0.1251627472015231,0.013552981732720232
0.4533333333333333,-1.7497084413352035,0.09458139497062414,-0.004733051465450791,0.01266042678370889,-0.13913763459055345,0.015902243432225103
0.46,-1.73813985590866,0.1764244891554227,-0.005349822022162411,0.01254364126420193,-0.129337004647203,0.023091444197400095
0.4666666666666667,-1.7269632726963666,0.26665049536470714,-0.0056992758984021254,0.012397076371757621,-0.12311900851382063,0.02824808463413435
0.47333333333333333,-1.7173282726738843,0.3898430405088272,-0.004997483414311855,0.012133401475709954,-0.13099003498267692,0.02541150278615233
0.48,-1.707695369112181,0.5130947873913381,-0.004296012181474974,0.011869555151823846,-0.1388526833270496,0.022577078097269904
0.4866666666666667,-1.7001568298685685,0.6954890709263896,-0.003915470950773852,0.011434452417333563,-0.1383455853122747,0.02189765534888461
0.49333333333333335,-1.692618290624956,0.8778833544614395,-0.0035349297200727332,0.010999349682843282,-0.13783848729749984,0.02121823260049932
0.5,-1.6841500155672395,1.0310084244397189,-0.003072441198393127,0.010460154652888574,-0.13668721740087753,0.020358276473491067
0.5066666666666667,-1.6716387406446964,1.05685494425519,-0.0022536010321679077,0.009468309386051548,-0.13273473581408915,0.018713262468430976
0.5133333333333333,-1.6585141636908718,1.0555107080225214,-0.0012915072551718063,0.0082699772600336,-0.12739567491360246,0.016861228348463774
0.52,-1.6447548178865994,1.026023983946784,-0.00018114569950641803,0.006857930814562174,-0.12062150160174602,0.014794927988281293
0.5266666666666666,-1.6307792314435205,0.9688644279995301,0.001085307501264517,0.005084906394566649,-0.11185455477776628,0.01256647492147062
0.5333333333333333,-1.6167784358966923,0.8980469196654414,0.002435829213742695,0.0030911294056951526,-0.10248410365857338,0.01032759510068971
0.54,-1.6027596456355515,0.8112645042444566,0.0038856086781320475,0.0008333184718559076,-0.09246169533078544,0.008086323215147313
0.5466666666666666,-1.5888246603370486,0.6964666772326541,0.011007783695463371,-0.0026215780212883464,-0.09061742593151155,-0.005020643644397034
0.5533333333333333,-1.574569563703522,0.5867144953480623,0.012327108148805853,-0.00561845516125851,-0.08065829805228193,-0.007297371853507389
0.56,-1.5598163119362458,0.48835874868468776,0.004064620110573592,-0.007759540377372707,-0.057267087031629554,0.008346097964705724
0.5666666666666667,-1.543086966539611,0.5206584860552531,0.004885298680273282,-0.00859146642501291,-0.05665657373933511,0.0069290601132023155
0.5733333333333334,-1.527122371972657,0.5550253375432191,0.006237303844451725,-0.009315834662073204,-0.056557258460930564,0.004856514808541861
0.58,-1.5119697088729085,0.5860583077440885,0.007721579990296906,-0.009996017362956317,-0.05590543529377335,0.0027967120010159666
0.5866666666666667,-1.497688555865144,0.6135741311636196,0.009346482397364877,-0.010632973660914957,-0.05456800827417338,0.0006940158806967005
0.5933333333333334,-1.484702576847291,0.6317733944497552,0.011080282625505746,-0.01115198457578937,-0.05099669707799255,-0.001499595124798394
0.6,-1.472343010892292,0.6438318609942809,0.012819804347925968,-0.011613704461220543,-0.045964688834387195,-0.003769381471759005
0.6066666666666667,-1.4617029991643231,0.636498392669163,0.014502236074556436,-0.011917773568089516,-0.03633329694341684,-0.00629821092940736
0.6133333333333333,-1.4517460636742032,0.6167667360856676,0.016102646472764416,-0.012167552915019598,-0.02442118158040376,-0.009010903586519533
0.62,-1.444607809829943,0.5458745446314717,0.01736459975567069,-0.012193308146603752,-0.003097769156061362,-0.01248229900177492
0.6266666666666667,-1.437469555985683,0.4749823531772758,0.01862655303857697,-0.012219063378187907,0.01822564326828104,-0.015953694417030304
0.6333333333333333,-1.4296692828587576,0.4373715911046601,0.020041413351351053,-0.012072280285684802,0.038249037405658395,-0.01671914703075791
0.64,-1.41956543569212,0.5155674810969891,0.02198833167771485,-0.011325129779980948,0.05374886485031724,-0.008068953070795729
0.6466666666666666,-1.409200718611177,0.6032746880870545,0.02444345773319823,-0.010254315817821484,0.16934998631951992,0.30422436038279216
0.6533333333333333,-1.3969874112210448,0.7583814971985603,0.03049987252144596,-0.006889940596842923,0.9942942398387027,2.768209752404551
0.66,-1.3847554483566433,0.9579756845778198,0.0338303811234468,-0.0051974711492525855,1.2193412463413764,3.1078540025458983
0.6666666666666666,-1.3724939023672977,1.2281162247729793,0.03283825379935131,-0.006156244799300239,0.49309454911974004,0.0788007584349879
0.6733333333333333,-1.3593620759876373,1.4566436001593532,0.03146425944198444,-0.006727631729964702,0.3071843622426442,-0.6272469320744193
0.68,-1.3456469219566216,1.6580953747933194,0.029987141112546856,-0.007007628054473351,0.39177750459661453,-0.16340299896274074
0.6866666666666666,-1.3307143561647212,1.8090885569484696,0.029426702378427348,-0.006444455711654875,0.3619834439727465,-0.1253691085566648
0.6933333333333334,-1.3151240403425655,1.9453262296352298,0.028365162252778034,-0.005836764672535408,0.3392789602259865,-0.10562251318633684
0.7,-1.2989492949955388,2.071392085937679,0.0267815974318301,-0.005228464420961516,0.32116141632755396,-0.09650321140718647
0.7066666666666667,-1.2822115904778515,2.1914182195670557,0.024606770453736347,-0.004679282617984735,0.30540235597746485,-0.0910058980063297
0.7133333333333334,-1.2648546106740823,2.309648014220042,0.021773772898245506,-0.0043797149086684355,0.29099280026205315,-0.08720202165845092
0.72,-1.246896862907771,2.4308453948146918,0.018564036655065997,-0.004369037265896006,0.27556607536979655,-0.08375976705823701
0.7266666666666667,-1.2284867831715534,2.5588088641566458,0.015198465532263164,-0.004792962793909845,0.2590204036998765,-0.08064297354679308
0.7333333333333333,-1.2095937631694587,2.697257284153087,0.01179348065924987,-0.005882115025769263,0.24112850728075425,-0.0782312699667154
0.74,-1.1902020229448456,2.850582466426751,0.004959650611009789,-0.008131013895593647,0.23636013507876355,-0.09076408932252898
0.7466666666666667,-1.1703304795245375,3.0250218822291677,0.0021464926773792645,-0.010429849229441375,0.22015608963315456,-0.08915379923034367
0.7533333333333333,-1.149971264670094,3.229310471844988,0.01064270624763646,-0.01084787638434842,0.16732008036788587,-0.04385235329944083
0.76,-1.1277005443599477,3.4254980610603027,0.0077124739302115945,-0.011158936573643884,0.1612074860106333,-0.044043135382323004
0.7666666666666667,-1.0996316594064857,3.4692397700565794,0.004751824037684267,-0.011871690131793467,0.1524505331353765,-0.043642630880018254
0.7733333333333333,-1.0701268580605725,3.4334717363278,0.0014325061524541921,-0.012695687505685713,0.1409102749346129,-0.04265494993152438
0.78,-1.041515346474143,3.3747549662329104,-0.0014475111371130855,-0.013568640083264683,0.12749344045241565,-0.04005740274614689
0.7866666666666666,-1.0137818691016078,3.29440125100185,-0.003868243745831906,-0.014243010602038825,0.11223982899140121,-0.036318169794480375
0.7933333333333333,-0.9870687852721868,3.1893280594167135,-0.0057107294261113505,-0.014625829461735764,0.09634674332843624,-0.03145028454736345
0.8,-0.9617480868320788,3.047486046137548,-0.006684258573756644,-0.01460737876060735,0.0809178200675815,-0.025867215427399937
0.8066666666666666,-0.9382116546861694,2.8536742551383636,-0.006930301609411454,-0.014272823603113926,0.06723094295741779,-0.02024912281816305
0.8133333333333334,-0.9170218993514541,2.588576905226585,-0.006530706304826296,-0.01368020463462689,0.05597446247995116,-0.015049643035282197
0.82,-0.8968895935526878,2.308998144080442,-0.005799120191812629,-0.01271790907242188,0.046625669832369036,-0.010457827162995741
0.8266666666666667,-0.8740692871637432,2.165318242510169,-0.0035610617399603082,-0.011333554391661838,0.03789426920793719,-0.004963634733806954
0.8333333333333334,-0.8499581974348431,2.0750862329399733,0.0018814682481624813,-0.009192018063033519,0.03163297641915143,0.0021886025323751856
0.84,-0.8249637823975586,2.01551854262538,0.0280759938222296,-0.017179771399717846,0.025361643223496398,0.02674339689155339
0.8466666666666667,-0.7991974324450265,1.9758169988415635,-0.004662595053020163,-0.012159903774097482,0.013196390616841365,0.004505153667913653
0.8533333333333334,-0.7726933601133862,1.9499166713760268,-0.013569977383650896,-0.00859722939772056,0.00782314339824996,-0.000843662491307943
0.86,-0.7454988256682655,1.934731884011552,-0.012503256407157218,-0.007189275465453858,0.004935829084157643,0.0010102602943723332
0.8666666666666667,-0.7176756407643161,1.9264852748868877,-0.01149042168469864,-0.005870839755480719,0.002886328340343209,0.002428967470628971
0.8733333333333333,-0.6892877122977138,1.924161833865161,-0.010573516567608233,-0.004669151437577155,0.0014802992794129086,0.003491930737124586
0.88,-0.660159658746577,1.9271109931356407,-0.009807556233417657,-0.0036233652455369947,0.0006120374674178479,0.004241696822250235
0.8866666666666667,-0.6304422062903137,1.9342746432789946,-0.00918884831446505,-0.002714770232440377,0.000043013774316917716,0.004811831878895898
0.8933333333333333,-0.6000647850342168,1.945472924893306,-0.008745969295610796,-0.001960165413458897,-0.00030668406857804704,0.005256137104920957
0.9,-0.5690731437203514,1.9601018427271422,-0.008492324690305243,-0.0013572132423214775,-0.0005209566740753103,0.00563611285389565
0.9066666666666666,-0.5373781285841983,1.978665339223611,-0.008429284862094238,-0.0008983977645720783,-0.0006614812540494504,0.006010337324052694
0.9133333333333333,-0.5049989851755003,2.000871968918679,-0.008586771126490101,-0.0005949098466288002,-0.0007610281876618573,0.006427563705018966
0.92,-0.471957183556529,2.0262411111793126,-0.008984207932364166,-0.0004406035530861429,-0.000849446450499023,0.006938921878872911
0.9266666666666666,-0.43810462096569935,2.056272359648803,-0.009675147929158943,-0.00044947704431751623,-0.0009449701094274446,0.007607447143970179
0.9333333333333333,-0.4035497349045582,2.0902642257120325,-0.01077205899661561,-0.0006565526911215484,-0.0010658777315210818,0.00854228802948585
0.94,-0.36820236813948526,2.1288195745765117,-0.012438808072247225,-0.0010890258917705183,-0.0014719712759003133,0.010024255583315505
