# n,energy,berry,bcd_x,bcd_y,qmd_x,qmd_y
0.00000016666666666666665,-3.0363501067536185,0.0000000028601747898398935,0,0,0,0
0.006688963210702341,-3.0118381548440496,0.0001539811212051659,0.00040916322788075727,-0.00000000043447894667653493,-0.0000000015073180201668837,0.00003432258386812002
0.013377926421404682,-2.988309821654445,0.0003167503962458289,0.0011051355669025999,-0.00000000030778871934870675,-0.00000000037947559491924684,0.00007297455341260633
0.020066889632107024,-2.9649875626491786,0.00048739796418031706,0.001974775138587636,0.00000000014829084861105237,0.0000000012897701632931711,0.00011219335382522058
0.026755852842809364,-2.9418517606328383,0.0006659343304683592,0.0029587459687126696,0.0000000007874037174039738,0.00000000003001246760539425,0.0001448700823074037
0.033444816053511704,-2.918947769824445,0.0008532706333155353,0.004008477195276933,0.000000001296800042630139,0.0000000004847169528990992,0.00016333986012067304
0.04013377926421405,-2.89625788655079,0.001049680299260451,0.005083323615952556,-0.0000000014715538190369103,-0.00000000037519115017549265,0.00015728332729489047
0.046822742474916385,-2.8737691465366093,0.001255416462694677,0.006140096214876186,0.0000000006789142353255123,-0.00000000013332539656134725,0.00011641729622540497
0.05351170568561873,-2.8515113318556495,0.0014703126068013892,0.007139994921515504,0.00000000014822603941175596,0.0000000005818550712630771,0.00003138437068079292
0.06020066889632107,-2.8294479642356807,0.0016943012108929028,0.008049249324371678,0.0000000002728647807892058,0.0000000005548494003282075,-0.0001101274741916779
0.06688963210702341,-2.807596456922427,0.001928312681236836,0.008831603274629885,-0.0000000006925002296464194,0.000000002975399212457484,-0.0003221481323111916
0.07357859531772576,-2.785962990810825,0.0021723733212143715,0.009450742098615673,0.00000000011452240605610801,0.0000000012329105902830752,-0.0006210924737738747
0.0802675585284281,-2.764529267125746,0.002426661995642673,0.00986954678475298,-0.00000000033412093335773754,0.0000000013246442575068204,-0.0010267833632661323
0.08695652173913043,-2.7433225898540177,0.0026935634494330844,0.010047629488682831,-0.0000000006825428942682247,0.000000003270639153044367,-0.0015620783677783123
0.09364548494983277,-2.722319324436186,0.0029713062713282207,0.009942833671288329,0.0002210720083320021,0.0012444190950980595,-0.0024328596311110114
0.10033444816053512,-2.7015298297906467,0.0032592458295319063,0.009400886567846174,-0.000011966786181746196,0.0011632678638174784,-0.003670711317040246
0.10702341137123746,-2.6809659967503627,0.0035651971908952458,0.008639341326638893,-0.000011420769557612404,0.0010859962519737217,-0.004809914466466319
0.11371237458193979,-2.6606169938657143,0.0038802578203234947,0.007420160504134082,0.000004733269809345398,0.0011400220229154166,-0.006267895197502445
0.12040133779264214,-2.6405060311951645,0.004214966265748182,0.005674752091210244,0.000021046487321503807,0.0012140775606261202,-0.008093825592158672
0.12709030100334448,-2.6206247758756995,0.004563913218764068,0.003338523533435484,0.000039461393734535095,0.0012730247326956424,-0.010343028022883415
0.13377926421404682,-2.6009784998641967,0.004936288108063976,0.00032904231113103195,0.00006048297726884349,0.0012942240374362295,-0.013093718243276287
0.14046822742474915,-2.581551190822028,0.005326188051037848,-0.0034652677744374024,0.0000844020676027486,0.00125506898834413,-0.01645749831192332
0.14715719063545152,-2.562390327105128,0.0057426898487616205,-0.00816955908353377,0.00011123202727650154,0.0011294259746126231,-0.020570933774592827
0.15384615384615385,-2.543470263475607,0.006190380348852635,-0.013917331307497626,0.0001410243080215303,0.0008913254551215343,-0.025600652425785388
0.1605351170568562,-2.5248288121967257,0.00667285907556592,-0.020849486569658387,0.00017369431288863092,0.000514353096033689,-0.03175075050725734
0.16722408026755853,-2.5064473741503925,0.007196045463260421,-0.02913516365331425,0.0002094598767522889,-0.000026083360922645328,-0.039299627819333265
0.17391304347826086,-2.488336265168406,0.007771349400943458,-0.03894004457117183,0.0002486567819956624,-0.0007490900106894125,-0.048594887793154205
0.1806020066889632,-2.470541227247738,0.008409237626632858,-0.050395074960838476,0.00029172881319161745,-0.0016632933328802266,-0.06005110348748373
0.18729096989966554,-2.453071088991439,0.009123464030967745,-0.0636084316995105,0.00033927561082303884,-0.0027671477429983705,-0.07419004490941024
0.1939799331103679,-2.4359263331697862,0.009936225897438533,-0.07862688743109633,0.00039183957805104475,-0.0040487421279023295,-0.09163099958802741
0.20066889632107024,-2.4191326841582836,0.010866192811519284,-0.09536870281288207,0.00044958041613502546,-0.005484823150170766,-0.11302289086077635
0.20735785953177258,-2.4027404412366296,0.011921156247963543,-0.11359132534493686,0.0005121032332916681,-0.007042438057502547,-0.13893251751654034
0.2140468227424749,-2.3869258322464275,0.013225418142446248,-0.13293256423359315,0.0005790635572906294,-0.008693586482083047,-0.17156237719967735
0.22073578595317725,-2.3717209449495855,0.014829457333637051,-0.15188301968846657,0.0006469330904148597,-0.010363135045839526,-0.21066088347413053
0.22742474916387959,-2.357300400446975,0.016834877930969057,-0.16887860843552208,0.000712527179551037,-0.011993523181275655,-0.25546798418123773
0.23411371237458195,-2.343615486422082,0.01921953981179311,-0.1839918492750551,0.0007749993880757586,-0.01357013717979508,-0.30433356027138275
0.2408026755852843,-2.3312644136002016,0.02226164484212019,-0.20420435431659092,0.0008280176447882907,-0.015006720945920336,-0.34264388382127103
0.24749163879598662,-2.3187762652747277,0.024581516901338397,-0.23914070187402103,0.0008780737040060847,-0.016453885491991605,-0.36068233709053205
0.25418060200668896,-2.3061074672934434,0.02594956945798911,-0.293481370502315,0.000924225929615148,-0.017914994281967342,-0.3520048105326819
0.2608695652173913,-2.2913209846844613,0.027861877165160573,-0.44328638131564824,0.0009656579657762662,-0.019594219932742855,-0.3557548726989674
0.26755852842809363,-2.275223493031668,0.03033325069615342,-0.7508965758804285,0.0009978718448356927,-0.021399602132698828,-0.37711022473453376
0.27424749163879597,-2.257821261129582,0.033539669555249854,-1.474796748884189,0.0010144527774959618,-0.02332422944681782,-0.42972924423638537
0.2809364548494983,-2.2392630649358667,0.03578000460293722,-4.146930275863328,0.0010083327037532504,-0.025325422637875995,-0.5069347875191407
0.28762541806020064,-2.219791570981222,-0.1977900095339844,-21.858985917295637,-0.014017939635024287,0.39559843463617317,3.0190833652661406
0.29431438127090304,-2.199463899835703,-0.7313588178043737,-36.38927016609354,-0.06730453376477794,1.0284008684788886,24.16132251046436
0.3010033444816054,-2.177222189182013,-0.5058601076412643,8.40492485791921,-0.05808960961983051,0.052082565144553034,57.19701060547232
0.3076923076923077,-2.1527432127890522,-0.2999351707001663,8.288342884351707,0.0011355993271557206,0.03397736412355,63.005364606145335
0.31438127090301005,-2.127748269755861,-0.2652870160621384,7.786783496505314,-0.005239889479763263,0.07021917830663806,53.715555139891094
0.3210702341137124,-2.1025000027944065,-0.32298853067142985,6.685337517313472,-0.00002653946289545711,0.4077206820637522,42.417466174346224
0.3277591973244147,-2.0763427935212255,-0.3923638506125241,5.489698657591379,0.02339924196021512,1.1029123987987115,32.49392383210662
0.33444816053511706,-2.0493622991603346,-0.47608607587973667,4.523267470010869,0.06592999843438031,1.7175029844672463,24.057243172013777
0.3411371237458194,-2.0273749566482437,-0.5641096191413837,3.877855911459339,0.08196439388964076,1.6992608265858482,18.47794803804124
0.34782608695652173,-2.009560232399446,-0.6581948146754648,3.4041182713908773,0.06972083220806628,1.4150231694860893,14.65001212695265
0.35451505016722407,-1.9945985960761472,-0.7386621977409608,2.9825358755344333,0.06320613240751319,1.119185955192099,11.89444950418319
0.3612040133779264,-1.9807086579295357,-0.8042773000358838,2.5809922145536386,0.05580977918374918,0.9190035687113622,9.718080469876654
0.36789297658862874,-1.9673955811032717,-0.8537033693136645,2.1918019393472568,0.047188032828073566,0.7991278818526556,7.958862964681598
0.3745819397993311,-1.953362533717654,-0.8167358630498782,1.8134745229153195,0.039252693761157025,0.6798270743665371,6.83680209656026
0.38127090301003347,-1.940416389717471,-0.7934279201170259,1.4982438218502048,0.033014099596426934,0.5792305697197244,5.89724622101146
0.3879598662207358,-1.9282622842575483,-0.7811048897912766,1.2233318929970949,0.027825294169604924,0.4908382972834676,5.074742606869642
0.39464882943143814,-1.9202714081785213,-0.8427058497300822,1.071500433311478,0.025224857548170075,0.44421590428467894,4.617289159896908
0.4013377926421405,-1.9122805320994942,-0.904306809668888,0.919668973625861,0.022624420926735226,0.3975935112858903,4.159835712924173
0.4080267558528428,-1.904322300252176,-0.9662366426395178,0.7882430335283943,0.02037613347341372,0.3563841734761244,3.7446509386585665
0.41471571906354515,-1.896388681537349,-1.028414439647937,0.6722024687601355,0.018393359823839623,0.3192561767663025,3.361335943128917
0.4214046822742475,-1.8882871447924505,-1.087437310318902,0.5562387075795164,0.016407943091354554,0.2821206512516139,2.9764034541189224
0.4280936454849498,-1.878168383235665,-1.1085595714788465,0.4411975995682039,0.014390774602219901,0.2448946810599923,2.5720397701369837
0.43478260869565216,-1.86796651869568,-1.1275332863745262,0.32934099334221056,0.012413330692766202,0.20842538277294476,2.173840857127202
0.4414715719063545,-1.8571664920764577,-1.131042106373669,0.24040592537996958,0.010721818000988724,0.17740248872211373,1.820014986826018
0.44816053511705684,-1.8462948863150555,-1.1311479836019263,0.16024419672774093,0.009135429824518872,0.14839456113112606,1.4825836511852128
0.45484949832775917,-1.835248403830756,-1.122940049545821,0.10151682423958472,0.007805873878407151,0.12430944653446233,1.185206197269209
0.46153846153846156,-1.824219761376625,-1.109622751029268,0.05758760178502077,0.006670737285435247,0.10353569906974074,0.9126905859554865
0.4682274247491639,-1.8132089769563868,-1.0911909318061817,0.028471463296396923,0.005730216248875895,0.08607666048796511,0.6650619072096605
0.47491638795986624,-1.8023970096156408,-1.065023493277058,0.01748489028781119,0.005088961413899579,0.07304436701710823,0.44390413046948396
0.4816053511705686,-1.7916689345251116,-1.035591956351242,0.014148213593272146,0.004573984035210318,0.061879969450570074,0.23391593503590163
0.4882943143812709,-1.7813907404106375,-0.9930580370591484,0.02862128264722754,0.02575799845860605,0.3617710187004262,0.1224842364916525
0.49498327759197325,-1.7711861340465676,-0.948380940138773,0.04600752028278389,0.05049135165768838,0.7125419046193696,0.027173581689699966
0.5016722408026756,-1.7619756311710288,-0.8807441652530832,0.06242563782318199,0.04197208111912815,0.5919287722067321,-0.18979698360307906
0.5083612040133779,-1.7528503920080691,-0.8111381513439654,0.07876072023244146,0.030600751227015086,0.4308852903213699,-0.417202252888102
0.5150501672240803,-1.744535915585217,-0.7101559203801162,0.06820693838562472,0.027069419313645038,0.34079735076100015,-0.4924731921740589
0.5217391304347826,-1.7364869496749133,-0.598898531148722,0.04884752725010908,0.02610554860531118,0.2739461011456614,-0.517922818841591
0.5284280936454849,-1.7288582124450966,-0.46816434626233194,0.03877505247828074,0.02392911001679368,0.2106050560930769,-0.4997254447503984
0.5351170568561873,-1.7222301385006242,-0.2910513318645328,0.0508169565767919,0.018865262226977573,0.15562263336471371,-0.377594300303403
0.5418060200668896,-1.715602064556152,-0.11393831746673372,0.06285886067530308,0.013801414437161466,0.10064021063635054,-0.2554631558564076
0.5484949832775919,-1.7080802921081253,0.05078360031464397,0.08268430757714128,0.010809997194059888,0.0649062021223268,-0.12186028878744623
0.5551839464882943,-1.698581876737233,0.18809943725782838,0.11972505106482154,0.012402290404763386,0.07174498698529208,0.03711522827879418
0.5618729096989966,-1.688639453832498,0.3237495836141844,0.15749311042547534,0.014177421806214213,0.0798941668221717,0.20495406287076873
0.568561872909699,-1.6772006256042167,0.45378597778949337,0.19771238797785215,0.01656875906258367,0.09245967265681755,0.4026642724256909
0.5752508361204013,-1.665069144132267,0.5888317808198946,0.23569098348092876,0.019223059094466217,0.10770293881254966,0.6170226773002331
0.5819397993311036,-1.652243774470412,0.7288959240872461,0.2714249019749038,0.022140790743801177,0.12562873952533946,0.848058959916802
0.5886287625418061,-1.638232384540878,0.886344990360158,0.296096200787741,0.024934547431823845,0.14753771548322978,1.1068282300409966
0.5953177257525084,-1.6235240775935393,1.0585531203320162,0.30867453325973343,0.027096578165468038,0.17091457096597412,1.3764720132764512
0.6020066889632107,-1.6079953480870166,1.2501859276073397,0.30331666073940294,0.02806214950157644,0.1946204765133366,1.6531162341186176
0.6086956521739131,-1.5915373819580694,1.4672731478762273,0.27061792700186477,0.026787910470156443,0.21568003252240664,1.9255384762561505
0.6153846153846154,-1.573966333138894,1.7189109075565634,0.19235232636736982,0.021253586475759544,0.22639422856418948,2.1634707821763604
0.6220735785953178,-1.5552881826380025,2.0091080927768177,0.060916949362571526,0.011523924803291832,0.21614527212658233,2.3257736793197608
0.6287625418060201,-1.5353961267758982,2.3435620700738617,-0.12711169578007656,-0.00033829837124856564,0.18292418654233697,2.3552610303667025
0.6354515050167224,-1.5143147342850487,2.711635848282152,-0.38909035274471204,-0.015287064869113975,0.14457160238213765,2.216065561865248
0.6421404682274248,-1.496350967657872,2.8334613984159014,-1.198098354748357,-0.03005951232679786,0.041477336680189464,2.5751294766991464
0.6488294314381271,-1.4782492536919152,2.9309660261377286,-1.9317903291764007,-0.05714518581999091,0.06845405279372249,2.857038051771995
0.6555183946488294,-1.4597866527409384,3.0207537286260533,-2.3854384679711833,-0.07553423701409052,0.08715766751960091,2.931386612288934
0.6622073578595318,-1.4406041921627148,3.1143795275865,-2.4906335388685026,-0.07939738727774034,0.10586298570631339,2.753312404096362
0.6688963210702341,-1.4184908554756626,3.2293324689446377,-2.16212093343551,-0.08962515724880994,0.08948241794559858,2.249979090377279
0.6755852842809364,-1.3935140247799276,3.351983426425052,-1.254902713093814,-0.08264971677833695,0.06862417441353072,1.443535438407535
0.6822742474916388,-1.3668613047204752,3.471418997435545,-0.49822594678590215,-0.06672566685287647,0.050571715483893366,1.5642023660350257
0.6889632107023411,-1.3341913117794904,3.3613674786053065,-0.9798616612861748,-0.04796101489703108,0.032786748775900966,2.330796370496296
0.6956521739130435,-1.2975680323018133,2.7983627607834074,-0.81896636879991,-0.03155355283869844,0.019179763562030896,1.3859171810106627
0.7023411371237458,-1.2651585304805977,2.3459885317168374,-0.8839075709775794,-0.021065769136772862,0.011465203461758161,0.7603074741232615
0.7090301003344481,-1.2359278768750275,1.9701761275028142,-1.0549797159114833,-0.013831790957771815,0.0062777760229866435,0.39079994586808925
0.7157190635451505,-1.21019460681397,1.6628095424557483,-1.271150126549654,-0.009012244422517916,0.002794068568581385,0.22993949530334012
0.7224080267558528,-1.1876160042190822,1.3908864056247954,-1.4966503711394508,-0.005550503790882981,0.000022351366046172204,0.16963176517886125
0.7290969899665551,-1.1684535544601669,1.139572876458404,-1.727722117243274,-0.0030867449141334263,-0.002256665248423888,0.15221395586397085
0.7357859531772575,-1.150114342043146,0.9385694401636725,-1.819565490034585,-0.0010566912247428864,-0.004393430751122291,0.13594689594184248
0.7424749163879598,-1.129876928621722,0.8307015589888475,-1.5977588757106957,0.0008565479669158079,-0.006747501825375303,0.10328973749095861
0.7491638795986622,-1.1092726487665419,0.765854225468229,-1.2620946364425016,0.0024853430241371507,-0.009046004722965918,0.05476291495401715
0.7558528428093646,-1.0891405728900272,0.7269909365248451,-0.8920964507511691,0.0037825512398178152,-0.01104887424796704,-0.01642577865920053
0.7625418060200669,-1.0697469158102775,0.7054337267351207,-0.5041679743214575,0.004766360740793236,-0.012591498251277968,-0.08255130685610385
0.7692307692307693,-1.050375795487264,0.6959741325423839,-0.15275085477303524,0.005498023997615848,-0.013626626926577158,-0.09180333696007996
0.7759197324414716,-1.0300781089354805,0.6912585049873101,0.09349355647348194,0.006010753419636824,-0.014101059963846873,-0.06191983126332985
0.782608695652174,-1.008382205646362,0.6853232519230574,0.23207185565807698,0.006304103205849756,-0.013906552703308752,-0.040327017705637055
0.7892976588628763,-0.9858414912367244,0.681025489571931,0.2975372570674053,0.006378582214366606,-0.013061703497586055,-0.022895290563505238
0.7959866220735786,-0.9626416234678716,0.6784062879403706,0.31765206327934253,0.006267902532443169,-0.011714289636434908,-0.009170503805968268
0.802675585284281,-0.9388840755032765,0.6772600844542472,0.31014053155785537,0.006014536189771492,-0.010072796628625978,0.0013089974586765127
0.8093645484949833,-0.9145143394853709,0.6775926905326854,0.2856925840641393,0.005660881100866097,-0.00836739580834402,0.008969629144386206
0.8160535117056856,-0.8897036573919715,0.6788633054449462,0.25323423323448574,0.0052628686133102415,-0.006793931701613108,0.014665502240337712
0.822742474916388,-0.8644506425740097,0.6809597660609473,0.2163650167081883,0.004849045684534107,-0.005449511997983451,0.018808877334145564
0.8294314381270903,-0.838762470470051,0.6838859150282015,0.17721364343100462,0.004441549304376894,-0.004393190481404921,0.021656105010020223
0.8361204013377926,-0.812637940769347,0.6873040308593469,0.1371306891162874,0.004054210022288677,-0.0036406698197479874,0.02343137779666756
0.842809364548495,-0.7861464671190004,0.6913434147585737,0.09690633104285054,0.0036884104034002585,-0.0031262235790735847,0.02448368461803213
0.8494983277591973,-0.7593121004292974,0.6957183540530172,0.05688827522670126,0.0033449206559748477,-0.0028243391938196634,0.02496297840036247
0.8561872909698997,-0.7320793439562414,0.7007111360502585,0.017162055978145227,0.0030129817547649793,-0.0027105510171993455,0.02502921962735353
0.862876254180602,-0.7045207421700003,0.7060183171575373,-0.02227318873852676,0.0026801613272812714,-0.0027353844890993777,0.02489644632611065
0.8695652173913043,-0.6766410405171458,0.7117817745033342,-0.061310931718635386,0.0023162397584968668,-0.002912693166747071,0.024713484962168485
0.8762541806020067,-0.6484777435583,0.7179775636052564,-0.09993450449727068,0.0018685088813351087,-0.003245979870010737,0.024669692772470782
0.882943143812709,-0.6200648191222218,0.7247475192770128,-0.1378620330586454,0.0011470129392862508,-0.0038419787181800617,0.025050419904045208
0.8896321070234113,-0.5913689759321716,0.7321857702617038,-0.1739693500881297,-0.001238653018493587,-0.005557045810742319,0.026828732486999796
0.8963210702341137,-0.5625025456725464,0.7405049073170339,-0.1993411145014981,0.017589853367280864,0.009363205184338363,0.03166832721386656
0.903010033444816,-0.5334583920792692,0.7497130504290289,-0.25736973209232833,0.006324102750066077,-0.004521658213060018,0.021500517873285784
0.9096989966555183,-0.5043046227123498,0.7604889415945945,-0.2915067842299101,0.00909964775607063,-0.006679798674476533,0.022222657346139704
0.9163879598662207,-0.4751524601773709,0.7730890224004858,-0.3214787525258823,0.004939388634208716,-0.004371244539178834,0.0248405481703983
0.9230769230769231,-0.446103366140934,0.7878717618899644,-0.3462996616329201,-0.008217575988746872,0.0035871261488401853,0.030449225093489605
0.9297658862876255,-0.4173222028269252,0.8065637982332212,-0.35263525717052746,-0.00794704118593528,0.003090783214539949,0.03192145035596932
