# n,energy,berry,bcd_x,bcd_y,qmd_x,qmd_y
0.00000016666666666666665,-3.0966789555397085,-0.0000000052027753280312996,0,0,0,0
0.006688963210702341,-3.048782884945562,-0.00021862229111174617,-0.00000000000000000013379390594571207,-0.00000000000000000038856372544931817,0.00000000000000000005464452800659724,0.00000000000000000037129542312370494
0.013377926421404682,-3.001368830034675,-0.0004495730259683309,0.0000000000000000004973841835581636,-0.0000000000000000016379349245508476,0.0000000000000000007900317810479953,-0.00000000000000000039616895351517494
0.020066889632107024,-2.95443388838521,-0.0006834594518863478,0.000000000000000001245085954788109,-0.0000000000000000010625590371119035,-0.000000000000000002000701797762193,-0.0000000000000000014701339300739505
0.026755852842809364,-2.919797130312674,-0.0008115696423511544,0.000000000000000001125032452391141,-0.0000000000000000019635963641843177,0.0000000000000000020536605131371866,-0.000000000000000000963759982845939
0.033444816053511704,-2.895793552756227,-0.00084458831894205,-0.0000000000000000000713133576643887,-0.000000000000000005277061674395171,0.0000000000000000015545958625481311,-0.0000000000000000010617743466613114
0.04013377926421405,-2.8724252023954495,-0.0008652662533120397,0.00000000000000000067201086605250865,0.00000000000000000116257658110316,0.000000000000000003890513489150314,-0.0000000000000000031623355673998098
0.046822742474916385,-2.8491679833566437,-0.0008777216073708281,0.00000000000000000041804406980881085,-0.00000000000000000381880502411319,0.000000000000000005682902553115034,-0.0000000000000000004471246551356053
0.05351170568561873,-2.8260333039640178,-0.000881770780773614,-0.00000000000000000005190665828885397,-0.000000000000000005336722395459476,0.000000000000000001778451114424715,0.0000000000000000006473203588351439
0.06020066889632107,-2.803011311418705,-0.0008766692470700802,0.0000000000000000013971118388481813,-0.000000000000000004917729144808987,0.000000000000000009415389976395444,-0.0000000000000000004697506466917763
0.06688963210702341,-2.780124392969778,-0.0008623154725985617,0.0000000000000000014671166664694728,-0.0000000000000000055769976028258844,0.000000000000000010701604582461395,-0.0000000000000000038905963995714356
0.07357859531772576,-2.757361022222862,-0.0008380070203732453,0.0000000000000000008902398098284014,-0.0000000000000000047800278588777046,0.000000000000000004509133688414572,-0.000000000000000005373677067394997
0.0802675585284281,-2.734720462832321,-0.0008041906084690987,0.0000017259627356644248,0.000004272788109394339,0.00004823555046707989,-0.00004403209679495115
0.08695652173913043,-2.7121937508088334,-0.0007594104598455411,0.000006140743810835378,0.000005533974784947497,0.00004128917338791601,-0.00003530934549555208
0.09364548494983277,-2.6897955888040705,-0.0007035523145900111,0.000009699387534736635,0.00000692485853098948,0.00003813881094887201,-0.000031169758828058175
0.10033444816053512,-2.6675229250259056,-0.0006372921454441172,0.000013085401915634879,0.000008499056231335024,0.00003636221737097541,-0.00002912903033103908
0.10702341137123746,-2.6454113999187463,-0.000560696090973613,0.000016535686463363404,0.000010239973181633086,0.00003443057856704442,-0.000027893845559030327
0.11371237458193979,-2.623416947523929,-0.00047383648400085875,0.000020171945499671633,0.000012157243669970785,0.000031506384111598925,-0.000026977737965897046
0.12040133779264214,-2.6015402955060782,-0.0003779860296433541,0.00002407300593308579,0.000014277841409472743,0.00002690635023296335,-0.000026165285445035258
0.12709030100334448,-2.57978067875555,-0.0002736094574085938,0.00003063932369938492,0.000015451440060591626,0.00002619226764395467,-0.00007071965035200491
0.13377926421404682,-2.5581435537833053,-0.0001630917954979516,0.000036114398485128636,0.00001805696858058973,0.00001752456997868545,-0.00008267070246903835
0.14046822742474915,-2.5366734054592452,-0.00004789896460796926,0.00004088316997013479,0.000021865745830102103,0.0000011143951188607542,-0.00007052270909989329
0.14715719063545152,-2.515296550942937,0.0000682443348211933,0.00004654963234362345,0.00002600772878294242,-0.000020118459679704782,-0.0000652927501717705
0.15384615384615385,-2.494105263715589,0.00017969213260662508,0.000052860419252406296,0.00003066272676453323,-0.000048652042150183654,-0.00006131418999972246
0.1605351170568562,-2.4730275763584717,0.00028193569620242967,0.0000598252361369741,0.00003594548592776109,-0.00008703416271660987,-0.000057272590857675514
0.16722408026755853,-2.4521211295117946,0.00036205925464375473,0.0000674335312441305,0.00004191684499461128,-0.00013822443572304816,-0.000052606142543343906
0.17391304347826086,-2.431374257869425,0.0004123941851136277,0.00007567092098274623,0.00004866022613723179,-0.00020600378803813183,-0.000046972426392391444
0.1806020066889632,-2.4107527847627637,0.00041174768915621003,0.00008457577392329249,0.00005628567153158323,-0.0002956215490697414,-0.0000401650799727759
0.18729096989966554,-2.390316822118841,0.00032777215664590013,0.00009404348353599081,0.00006488147605737361,-0.0004135409924486878,-0.00003201115536814387
0.1939799331103679,-2.3700305219136957,0.00012794007261707758,0.00010399261274385662,0.00007455338449282403,-0.0005676318374299104,-0.000022500787876196286
0.20066889632107024,-2.349957551284042,-0.0002436297008325577,0.00011423802753523023,0.00008537404655239886,-0.0007676155055626661,-0.000011746698465669414
0.20735785953177258,-2.3300985616466514,-0.0008760093625177782,0.00012457752628029846,0.00009747387623156384,-0.0010265381441074597,-0.000000039601660646082954
0.2140468227424749,-2.3104603918921685,-0.0019098104785315712,0.00013460733434489643,0.00011099155535291138,-0.001362564003352315,0.00001217535116927464
0.22073578595317725,-2.2910948008757765,-0.0035851830395249758,0.00014385190966125327,0.00012600690715042104,-0.0017954778472763031,0.000023957305523328528
0.22742474916387959,-2.272050360170735,-0.006287964124677905,0.00015158430117052373,0.0001425726242546974,-0.0023489531992249707,0.00003411674974513254
0.23411371237458195,-2.2534275008216498,-0.010762633806535998,0.00015695011538423536,0.00016067560329646635,-0.003049529511864613,0.000040884487479515816
0.2408026755852843,-2.2353938174941628,-0.01861269623356602,0.0001589342399712017,0.00018015821271175002,-0.003920307694474247,0.000042288573468371245
0.24749163879598662,-2.218750081437015,-0.03596803134729375,0.0001567325933345881,0.00019994674532779064,-0.004934075922476773,0.000036823148503527485
0.25418060200668896,-2.2025262363202938,-0.05871144670903937,0.00014980121198510568,0.0002209070169158573,-0.006148785791760376,0.000023403088941126825
0.2608695652173913,-2.1854416507159944,-0.08056363609791775,0.0001358347162444628,0.0002448539408869391,-0.0077212423515344185,-0.0000017031631817549886
0.26755852842809363,-2.1658551116132085,-0.09145883173446087,0.00010793324915065788,0.0002748925882156415,-0.010006998821206169,-0.00004803404412619968
0.27424749163879597,-2.1448055293246675,-0.09608906881888989,0.00005985757562894972,0.00031017691443584167,-0.013142818682849776,-0.00011659073132351842
0.2809364548494983,-2.1225387451832094,-0.09518950344067344,-0.000015252224017010795,0.0003506517195872238,-0.017300068259833493,-0.00019041053014413542
0.28762541806020064,-2.0993416507714846,-0.08865758208965244,-0.00012032789372473528,0.00039597554101937954,-0.022441402531990385,-0.00019725557388729296
0.29431438127090304,-2.0755746550363328,-0.07559579779261716,-0.00024613375870084124,0.0004458601483792649,-0.02800056717333399,0.00005401020479260562
0.3010033444816054,-2.0519115857408603,-0.05342704320063382,-0.00035846454989455894,0.0004991300231325403,-0.03236098228674785,0.0009374149961722834
0.3076923076923077,-2.0351242366789837,0.0029464397263865294,-0.0003879668417952873,0.0005354685635636361,-0.03271987445023999,0.0023633947190954676
0.31438127090301005,-2.018640573745764,0.0636166587518012,-0.0003404130667694856,0.0005522197604879777,-0.02897844079249223,0.004509206316134282
0.3210702341137124,-2.0002348758796495,0.12026999288677781,-0.00015892088575565605,0.00047413240293066083,-0.01707736541521753,0.007217540542988596
0.3277591973244147,-1.979348208636595,0.16790716412384335,0.00008486489561805928,0.00027874069829667675,0.00039352611531039486,0.009178300622709712
0.33444816053511706,-1.9552831923811709,0.1961635668024896,0.0001620013034825461,0.00020018058130937176,0.007760651685418449,0.011345560474013378
0.3411371237458194,-1.9298778161442751,0.21314852566478829,0.0002127975929914728,0.00019256474716260234,0.011194629135656832,0.015964749620200582
0.34782608695652173,-1.9038378262714604,0.22321289999961216,0.0007771389201961093,-0.00011920783495169264,0.01023422733537838,0.022458414621020887
0.35451505016722407,-1.8793782569902553,0.21976787288160113,0.0035606056311515274,-0.0016626134927297952,-0.0352061497281738,0.026857117211561175
0.3612040133779264,-1.8597139440416373,0.19692417947203347,0.002058698922696748,-0.0005875090214856393,-0.04998357347584063,0.030730808828277115
0.36789297658862874,-1.8419404556935906,0.1730256938183132,0.0014861799610486983,-0.000008036631549121345,-0.0436917293270117,0.039452613003668244
0.3745819397993311,-1.8245531284668106,0.1541641501520167,0.0014154558508045407,0.00024186599301673122,-0.031482765833647515,0.05163177673544708
0.38127090301003347,-1.807644183590416,0.14126858139493778,0.0015156348943358019,0.00028394846518935016,-0.019245644840158282,0.06656373579208852
0.3879598662207358,-1.7913108774627569,0.13891835996898588,0.0015677332725550627,0.00012735619593831686,-0.0315854271871977,0.07865714964535059
0.39464882943143814,-1.775748444903427,0.16524359854952803,0.003918994953593193,-0.0023141977139047197,-0.04498878804283862,0.21410018027910463
0.4013377926421405,-1.7600857519080289,0.207833740880605,0.007033529671717833,-0.005363233287110046,0.49861550001448274,-1.3628431246710575
0.4080267558528428,-1.743382068335965,0.25070569638866524,0.00854729184785246,-0.006604055721409034,1.9206409616880533,-5.905176715802357
0.41471571906354515,-1.7274578490078951,0.28325069695348726,0.007279231157220341,-0.005784076654246634,-0.006735507525746698,-0.9563897801042511
0.4214046822742475,-1.712999748531075,0.306942407616497,0.00532545253758624,-0.0048168828848432115,-0.24569166962881722,-0.07735597869185035
0.4280936454849498,-1.698321729995046,0.32720793310678475,0.004633396130732133,-0.004721388850621471,-0.18697191318825243,-0.029513984424504345
0.43478260869565216,-1.6828807699343928,0.34502701952096754,0.005794398371143951,-0.005826021608947243,-0.1720494740567209,-0.034290684670796504
0.4414715719063545,-1.6670443851689818,0.362553757635564,0.005851509486344958,-0.006256709085105065,-0.1502365360362542,-0.0286397314586147
0.44816053511705684,-1.6509862669413105,0.38030590215828275,0.005774103844405997,-0.006621435965436057,-0.13109256037337255,-0.024085652547213086
0.45484949832775917,-1.6348205705287815,0.39862175400827554,0.005661297075150172,-0.0069805058208483,-0.1149915670007974,-0.020999124073235793
0.46153846153846156,-1.618577852597662,0.417780485054885,0.005560066676356145,-0.00736593994482463,-0.1019401928005308,-0.01938380786473626
0.4682274247491639,-1.6022632160631496,0.43803100888920127,0.005501010273570256,-0.007801408491144411,-0.09160244703951324,-0.01899371220263414
0.47491638795986624,-1.5858678774341395,0.459815121022048,0.00551373372707095,-0.008320101184303305,-0.08378124125478587,-0.01956478328343719
0.4816053511705686,-1.5694647865641895,0.4835206353064925,0.005605038431069298,-0.008940662662793131,-0.0777257664722122,-0.020645158108961743
0.4882943143812709,-1.553026836901052,0.5091782788882211,0.005767927471257097,-0.009667915360981749,-0.07287091184871371,-0.02200262263447589
0.49498327759197325,-1.5365633538066217,0.537011003852653,0.0060047053242596226,-0.01051738632763599,-0.06899338723883998,-0.023546881071973225
0.5016722408026756,-1.5201023894798926,0.5674281539781275,0.006317870889080544,-0.011505152371812911,-0.06591679256100033,-0.025221285018601918
0.5083612040133779,-1.503692097057897,0.6014504136056101,0.006714673468146275,-0.012657240534721016,-0.06353406663351104,-0.027002901801957524
0.5150501672240803,-1.4873746073514156,0.6400833633822836,0.007218841610206481,-0.014041139555700372,-0.061804613605038576,-0.028918464360426947
0.5217391304347826,-1.4722283059597803,0.6875663891529274,0.007686170517640182,-0.015467111731965485,-0.05730351932958672,-0.023557106723553
0.5284280936454849,-1.4576453181331277,0.7410313821244634,0.008219625688832746,-0.016973000937201655,-0.05215102295855631,-0.017186575293949635
0.5351170568561873,-1.4432622617926816,0.799428085533155,0.008910214279573265,-0.018607715189693202,-0.04785322414067894,-0.014337728070459068
0.5418060200668896,-1.4291168363735114,0.864303552403696,0.009774523764931412,-0.020569087022484066,-0.045025513781959986,-0.01458917264985698
0.5484949832775919,-1.4151475286947028,0.9342793713785622,0.01073279248924721,-0.022763916129242574,-0.042916446708198205,-0.01590162078725437
0.5551839464882943,-1.4013466289055487,1.0092592531890512,0.011777527706421894,-0.025183434837242356,-0.041437816445241075,-0.01807666875119034
0.5618729096989966,-1.387823370441244,1.094086555313878,0.012959109432744156,-0.028008189251879978,-0.040610225756489635,-0.020967999131189578
0.568561872909699,-1.3744823727229927,1.1848568402986188,0.014182293795853224,-0.030994721599787747,-0.039779201565720144,-0.0238123359956656
0.5752508361204013,-1.3612959172918688,1.2807287268004899,0.015434634408243466,-0.03410232341697279,-0.038914890127412616,-0.026579957271272932
0.5819397993311036,-1.3484711848658977,1.3901699464029351,0.01659560831870927,-0.0370732393067053,-0.037180382691672426,-0.0282063795111068
0.5886287625418061,-1.3358275371736685,1.5052160740510145,0.01753167530888619,-0.039456745330143435,-0.034403511815433614,-0.028390663712402675
0.5953177257525084,-1.3233956578069483,1.6268168237642628,0.01820472641185615,-0.04115330883114121,-0.03040765601537545,-0.02688844927153257
0.6020066889632107,-1.3113719423393777,1.7553818747293128,0.017947252064618245,-0.03985653091061964,-0.02321863466500614,-0.020157462376873346
0.6086956521739131,-1.2995082283197041,1.8838451674566339,0.017413101464152637,-0.03702078545560065,-0.01474309744563179,-0.010804672305888635
0.6153846153846154,-1.2881072622343654,2.004068618075693,0.016325935639255666,-0.028708388714549556,-0.0024491625045334232,0.0077360094565938516
0.6220735785953178,-1.2769712818471923,2.1067592989954322,0.010827977766032608,-0.01753004834922399,0.004860534600663383,0.015883556932581318
0.6287625418060201,-1.2662679834465524,2.1808215910041633,-0.001872143389467524,-0.0016720509713536967,0.004031717276124261,0.007060671587013227
0.6354515050167224,-1.255763674036247,2.211979012846184,-0.008719839496505694,0.006643040838050649,0.0031781361711879083,0.001757113090838288
0.6421404682274248,-1.2454623774534719,2.199363967715397,-0.009596766291126784,0.0072626989218249225,0.0022992905273927318,0.00004404718170543994
0.6488294314381271,-1.2350795051113337,2.1556643381575435,-0.01074655956658928,0.008265278410305924,0.0010272956813153623,-0.0020378045930027873
0.6555183946488294,-1.2246261907890725,2.0851226700401613,-0.012131977436536314,0.00959851668994828,-0.0005841898236146866,-0.004438108893502676
0.6622073578595318,-1.2144241330315317,1.9848819958561756,-0.014307038947885969,0.012241892334792302,-0.002979199361672116,-0.007578535313502955
0.6688963210702341,-1.2043849384039929,1.8653905884970068,-0.01699394314548685,0.01573449184873731,-0.0058820848893923715,-0.011198704840312951
0.6755852842809364,-1.1946101023727385,1.7188666185476607,-0.021720597150241657,0.021820116207100098,-0.007895699736955758,-0.013195695046557135
0.6822742474916388,-1.1850135561588873,1.5541112359797176,-0.02782290765255838,0.029654539100975444,-0.00930956897603394,-0.014097973944966891
0.6889632107023411,-1.174764134938653,1.41158705608564,-0.03559808660397232,0.03876407820426536,-0.008198395208941674,-0.009772560279611604
0.6956521739130435,-1.1638487185919542,1.2917408352059032,-0.045079751825227526,0.049174358142850656,-0.004511435388191711,-0.00011439878950616177
0.7023411371237458,-1.1525785106199937,1.195628839431762,-0.052038084464163185,0.05532858790361428,-0.0019990440217653995,0.011692030486345577
0.7090301003344481,-1.1411145878788445,1.1124756330168983,-0.05761868788412506,0.059159031759781315,-0.00012796220388817904,0.024671405143769677
0.7157190635451505,-1.1293587178170934,1.053793712123282,-0.059150154213987574,0.057355144407686076,-0.005888712614645155,0.03340785919723517
0.7224080267558528,-1.1175262181620662,1.0018885765044991,-0.06026234609684718,0.05493454394661273,-0.015479823007898165,0.0417709913492729
0.7290969899665551,-1.1055094912743095,0.9670764214938333,-0.06182373777080583,0.052983552882992634,-0.03841698357033945,0.050913025893581196
0.7357859531772575,-1.0934284476971496,0.9411230066172294,-0.048284340129268556,0.045005826669822474,-0.032006130903139626,0.045900519250705374
0.7424749163879598,-1.0812824679864323,0.924113651794589,-0.019498715094658274,0.030943320872741636,0.00403539032619081,0.026597146807657335
0.7491638795986622,-1.0691048336879334,0.9226782247772575,-0.012357542845889063,0.024758823410349913,0.009136841013528312,0.02143653791995909
0.7558528428093646,-1.05692954212039,0.9280069653662194,-0.009581540673992417,0.020344678249486214,0.008231724853668932,0.01909158600066292
0.7625418060200669,-1.0447928479092945,0.9501993823050973,-0.0074373685463390874,0.01698268499622032,0.0074800282396094145,0.016993720698542176
0.7692307692307693,-1.03228790028487,0.957802517777623,-0.005540145994508944,0.014051019306528781,0.006796118606238075,0.015063147027320003
0.7759197324414716,-1.0194411909754575,0.9518659079654205,-0.003872107749152652,0.01151872390887203,0.006175119435884091,0.013287830218874624
0.782608695652174,-1.0062504270520731,0.9175154587322525,-0.00254170218081038,0.009629932108427925,0.005653307048645442,0.011863044840613955
0.7892976588628763,-0.9935075599295952,0.8910784319385834,-0.0013445717012827534,0.008041113325899043,0.0051896921043956355,0.010647010492083565
0.7959866220735786,-0.9814062385605642,0.8776499925845893,-0.000305363945999889,0.006816469472066144,0.004798653196484349,0.009691695538828331
0.802675585284281,-0.9703175480762718,0.8813712867541807,0.0008149510361856223,0.005898534758225678,0.004448399657377267,0.00905076005636709
0.8093645484949833,-0.9595592099923947,0.8906873694309997,0.001961725775329103,0.0050806583204587915,0.004111451602716049,0.008512385155834863
0.8160535117056856,-0.9464243121671188,0.9166675675861261,0.005370819091904169,0.0039113798039649775,0.0018658445058893016,0.00853348595855353
0.822742474916388,-0.9324000107306518,0.9464854382408747,0.012355539355573339,0.001773159979650521,-0.007145243908570855,0.010385031322248061
0.8294314381270903,-0.91742565089074,0.9786465403760561,0.02452432604888984,-0.0018163310171894602,-0.026795957193432644,0.015239645651696724
0.8361204013377926,-0.9013256885228977,1.0054228243688843,0.03236690542138106,-0.003835040263451939,-0.047907648943880034,0.02483142691440695
0.842809364548495,-0.8844025850294545,1.024238881441634,0.02999805533999836,-0.00334121849992619,-0.04878332265923777,0.028330902363801997
0.8494983277591973,-0.8666690748014143,1.0325869090983366,0.023187591195350143,-0.002183424826934245,-0.039595626006627145,0.027040377786879795
0.8561872909698997,-0.8481142347819938,1.0287371469873878,0.01617577664413145,-0.00136386542574114,-0.02858208361766104,0.023432024805935234
0.862876254180602,-0.8287029027821103,1.011729196502821,0.010868306791896152,-0.0010405654113913147,-0.0199505163235865,0.019911936173248546
0.8695652173913043,-0.8084133427482438,0.9805592331894122,0.0074031989487166015,-0.0010786610800359703,-0.014135067546157652,0.017490821522296383
