# n,energy,berry,bcd_x,bcd_y,qmd_x,qmd_y
0.00000016666666666666665,-3.0367625979394206,0.00000000005966720215001335,0,0,0,0
0.006688963210702341,-2.988692343285324,0.000006435499315824235,0.000012578606263341117,-0.000021786739714050393,0.00003255514140364963,-0.000018795633418843695
0.013377926421404682,-2.9556049100520476,0.000022426055584234723,0.000029930187828185154,-0.00005184064556490304,0.00006437443660872247,-0.00003716676624446666
0.020066889632107024,-2.9318416483857335,0.00004455601674233853,0.000050313928150692795,-0.00008714624583406819,0.0000769048256338186,-0.00004440107776107487
0.026755852842809364,-2.9082467336758184,0.00007517956322791811,0.00007480937874368388,-0.00012957349260678863,0.00008406790925058484,-0.00004853649206250646
0.033444816053511704,-2.8848171108020297,0.00011480408776990261,0.00010239636923190646,-0.00017735582806165603,0.00008647370399741128,-0.00004992546923859663
0.04013377926421405,-2.8615560361094983,0.0001641003093333278,0.00013221666664456702,-0.00022900626469479725,0.0000840163352412527,-0.00004850682976726747
0.046822742474916385,-2.8384790427999187,0.00022376664005527763,0.00016342165905373256,-0.00028305458230558144,0.00007617575746346621,-0.00004398029775609844
0.05351170568561873,-2.815571842150809,0.00029579857732404345,0.000195097237477626,-0.0003379185568881721,0.00006167596480837563,-0.00003560875782374529
0.06020066889632107,-2.7928473250910484,0.0003793279793061801,0.0002261178450389683,-0.0003916472347421857,0.00004021043202474997,-0.000023215678330295258
0.06688963210702341,-2.7702747236092966,0.00047544524404877475,0.000255477813954634,-0.00044250044756039805,0.000010613908110493304,-0.000006128247834215489
0.07357859531772576,-2.7478709611385486,0.0005850103360281614,0.0002819906975914853,-0.0004884221022844155,-0.000028512737730504182,0.00001646176597936075
0.0802675585284281,-2.7256288639481023,0.0007086156129329307,0.000304353721041365,-0.0005271560486605231,-0.00007894439860055365,0.00004557831988183165
0.08695652173913043,-2.7035565843918463,0.0008473951176691656,0.00023521374942965444,-0.0005216615485574931,-0.00007159443558888033,0.000058336633783189685
0.09364548494983277,-2.681645793597242,0.001002132337560654,0.0002785608155082176,-0.000550498602693266,-0.00016420296935320655,0.0001269790112333922
0.10033444816053512,-2.659911701986058,0.0011749890590569175,0.00028986380984292136,-0.0005551179659006302,-0.00026690496547372537,0.00019723306978285365
0.10702341137123746,-2.638330147219758,0.001366119968781907,0.0002892954830854914,-0.0005358032615955326,-0.0003857232690832208,0.00027346845819092684
0.11371237458193979,-2.6169285309786234,0.0015774220450802607,0.00031339217245078505,-0.0004954397065778459,-0.0005107720345119811,0.0003395315806459919
0.12040133779264214,-2.5956933654796392,0.0018090933715793846,0.00025808267390796814,-0.00041161891600224626,-0.0007167433950766129,0.00046083370083435833
0.12709030100334448,-2.5746092376952636,0.0020628351636725723,0.00018723509876315462,-0.0002891416973693009,-0.0009661227694200492,0.0006040786755374826
0.13377926421404682,-2.5536831218093208,0.002339717559289054,0.0000899464237155308,-0.00011733918171212104,-0.0012779429926740495,0.0007788070078025047
0.14046822742474915,-2.5329279383100567,0.0026407689755162216,-0.000041821634289552486,0.00011588392369473228,-0.001672073685987534,0.0009943422753653055
0.14715719063545152,-2.5123460631447347,0.0029681989980010035,-0.0002172207232970703,0.0004257697378587032,-0.0021742826111911242,0.0012625723469442721
0.15384615384615385,-2.491914268772346,0.0033223314938397868,-0.0004480036279541261,0.0008324148485832381,-0.0028201141592171615,0.0015999033568900253
0.1605351170568562,-2.4716477019916048,0.003706095596527246,-0.0007489557686232961,0.0013612621793463178,-0.003657286599597143,0.0020283540279186396
0.16722408026755853,-2.4515472318998257,0.004119971018480425,-0.0011396313872694482,0.0020460781470887117,-0.004752905031768683,0.0025792068047966973
0.17391304347826086,-2.4316055761129673,0.004564537478531601,-0.0016462494068484722,0.002932222225475847,-0.00620288988603879,0.003297793082998754
0.1806020066889632,-2.4118365855880146,0.005040956191418569,-0.0023035440942257264,0.004079810346278589,-0.008144100745100356,0.004249865839223325
0.18729096989966554,-2.392247203506459,0.005550687912493403,-0.0031588228899374765,0.005570752334243312,-0.010777862120374782,0.0055341934709437395
0.1939799331103679,-2.3728289893037915,0.006092809270662688,-0.004277948367961456,0.0075190885070301,-0.014409043620919845,0.007303834245386245
0.20066889632107024,-2.35357520714889,0.006662228713145212,-0.0057527485920722,0.010083869566886198,-0.019508188738595562,0.009800484428468433
0.20735785953177258,-2.3345041854171225,0.007259443482887508,-0.007709126125445918,0.013483151288519402,-0.026810648477790897,0.01341094854195114
0.2140468227424749,-2.315631618373295,0.007878615782222808,-0.01032002455654181,0.01801646270176842,-0.037504642941633984,0.01877434819721284
0.22073578595317725,-2.296955108202881,0.008497665935579187,-0.013817389498271248,0.02408558329643039,-0.053581799751969646,0.02698254466340025
0.22742474916387959,-2.278484550488024,0.009088315458640901,-0.018471326910909462,0.0321584050221015,-0.07844523437880328,0.03993169503467813
0.23411371237458195,-2.2602462274402897,0.009601741971176893,-0.02445313598578802,0.042531666040909355,-0.11798207224066713,0.06094377399903428
0.2408026755852843,-2.2422678385531962,0.009923932211170711,-0.031295012062322304,0.0543951331530991,-0.18227453892740828,0.09575809333857956
0.24749163879598662,-2.2246266724685926,0.009828478758414468,-0.0362885582510503,0.06305773283187674,-0.2869062574966943,0.15330277495118566
0.25418060200668896,-2.2075248695143674,0.008532357422230965,-0.02526544148180214,0.04397912954867208,-0.46242872730282636,0.2511123763772538
0.2608695652173913,-2.1909827638249495,0.005122924742268902,0.014323440917742018,-0.024576415145286835,-0.3769229726702349,0.19751043259968404
0.26755852842809363,-2.174486716021946,-0.0007807162270440917,0.05706626739848026,-0.09857637240484887,0.6638467544711809,-0.40855418124995546
0.27424749163879597,-2.1572688845894574,-0.007255044310677611,0.1004490639348628,-0.17372371157025432,2.0170701626974026,-1.1958910416633333
0.2809364548494983,-2.139168154488518,-0.011777487420542791,0.15845289075353702,-0.27419471051133126,3.1590420640282115,-1.862322605956659
0.28762541806020064,-2.1207240563268304,-0.012760336714574159,0.2289729587629683,-0.3963245171442577,3.8682334249994623,-2.279965522449741
0.29431438127090304,-2.101963623566165,-0.009033561750631604,0.26633207090837013,-0.46105792572300364,4.514240405678862,-2.6613323206175528
0.3010033444816054,-2.082615575437379,0.0019189459323427714,0.26882020046884014,-0.4653198523595751,6.319428842295942,-3.710535205401907
0.3076923076923077,-2.0626912863226106,0.016438120262496612,0.3000891445213254,-0.5197472706817277,7.7484016426018005,-4.539705313805337
0.31438127090301005,-2.042957147097077,0.03110011218617382,0.3146283714133238,-0.5449859339994222,8.40574905566085,-4.918415876488687
0.3210702341137124,-2.0245664099186165,0.040025954648022936,0.2784249119386553,-0.48246747943409757,7.9407834112124975,-4.642021138784782
0.3277591973244147,-2.0069240344982493,0.046221573877148286,0.2396420966545495,-0.41548894262233493,7.113101294382519,-4.150034442810427
0.33444816053511706,-1.9905959573856196,0.04672787656099297,0.23251356152069347,-0.400010806324125,6.863563885758948,-4.005820801384578
0.3411371237458194,-1.9744404051219904,0.04803031790513585,0.2117258522117746,-0.362244214528255,6.834681588176297,-3.965955445389775
0.34782608695652173,-1.958452118599257,0.0499300041283892,0.18393070482679924,-0.3127963262281269,6.905218966949882,-3.9771650506966663
0.35451505016722407,-1.942627110799903,0.05219701246704602,0.15089657998694303,-0.2565973861365277,7.046089715840881,-4.01856341554362
0.3612040133779264,-1.9269623306552466,0.05465833940116932,0.11412968369055355,-0.19667034814518802,7.253213721423401,-4.0843262282837625
0.36789297658862874,-1.9115064235139445,0.05742921652113937,0.07876800600946984,-0.13384067530592295,7.548603372069273,-4.2042075375138115
0.3745819397993311,-1.8962368812565964,0.05981046136825568,0.041064457192457514,-0.06742298510273273,7.952491131649499,-4.398344496451919
0.38127090301003347,-1.8811417829684343,0.06138872039020947,0.003219640096727313,-0.00008186742340025865,8.503398608331048,-4.710307264297518
0.3879598662207358,-1.8662182349667524,0.06122252011786765,-0.028442898506025573,0.058226904257756874,9.27420414612968,-5.216984546343893
0.39464882943143814,-1.8514839687104043,0.05714817796283631,-0.039675301991691496,0.08472530080331085,10.437974405638078,-6.095468351564334
0.4013377926421405,-1.8370045251898315,0.02444293504044015,0.39499628345783533,-0.5047576911901286,13.478300969051412,-11.364448541649988
0.4080267558528428,-1.8227399953737327,-0.010378230961737405,-1.3367860158465565,3.5556978392030327,19.366012761705246,-11.535029559482515
0.41471571906354515,-1.8086985948099694,-0.02802726490630867,-4.438454460978585,10.39987174980834,24.254193548657522,-5.928363660426823
0.4214046822742475,-1.7950756617805126,0.08118860782683676,-1.4910275610694055,3.3358800977172605,0.9056835445033187,2.816212707232192
0.4280936454849498,-1.7813574247748998,0.12803164353392818,-0.37793563894013565,0.6971837397218917,-7.981745525770067,5.7068256826077866
0.43478260869565216,-1.7677091960274147,0.1413642404177228,-0.23836487695137995,0.40906641399563154,-8.44047450854982,5.220559882010292
0.4414715719063545,-1.7544851423681511,0.15130272471775197,-0.15612680260558842,0.26627425455683795,-5.776739666573312,3.5947265205138423
0.44816053511705684,-1.741458069390086,0.16234478000378907,-0.09896780195077569,0.16782578816637733,-3.550964386364558,2.259953745921053
0.45484949832775917,-1.7285823111646723,0.174337829791596,-0.050631755903154996,0.08492293425324171,-1.4481571871055618,1.0110911800568254
0.46153846153846156,-1.7160180581381848,0.1884978054260002,0.0006905550067207583,-0.003483662720385472,0.8338495065800584,-0.3397614828830229
0.4682274247491639,-1.703845179379139,0.2055026547351779,0.07677995517760221,-0.13212348515190317,3.5286348000772936,-1.8432739546921522
0.47491638795986624,-1.6919100361133614,0.22423558762731507,0.167913819617373,-0.28520248638415274,6.474157385728011,-3.4395177529654486
0.4816053511705686,-1.680411089633491,0.2558441521576791,0.4295037055006252,-0.5675172181326309,6.6994813611007755,-1.7464755804689822
0.4882943143812709,-1.6691348212759018,0.36230124641851097,6.917079154945463,-11.860683450756321,-2.9788947443393994,4.569115378261509
0.49498327759197325,-1.6585069714371183,0.7021454397542182,32.921989117326156,-57.69074597085658,-43.420932606316434,25.010553693224303
0.5016722408026756,-1.6481100726369275,0.8300355218625054,39.47455927766166,-69.24509065025512,-59.382888983653956,32.259281140352904
0.5083612040133779,-1.6380896856238423,0.6123838749147901,14.314627658913764,-24.92087398104244,-35.43578375020698,18.000371402203793
0.5150501672240803,-1.6285362206164165,0.49865202589678836,-0.5577911342950402,1.2288495792098646,-19.516353790942187,9.420781184995098
0.5217391304347826,-1.6196662627801466,0.5370439282743832,-0.37075951739243873,0.7737093259429432,-15.34829461975599,9.154904120731883
0.5284280936454849,-1.611270188271776,0.5923445631511687,-0.21645889721490866,0.3976610733458111,-11.790800062849069,8.876539156596767
0.5351170568561873,-1.605100771690536,0.7270950563379668,-0.21595295397587,0.3932461319369021,-11.102194235237363,8.539496708773289
0.5418060200668896,-1.598931355109296,0.8618455495247648,-0.21544701073683134,0.3888311905279931,-10.413588407625655,8.20245426094981
0.5484949832775919,-1.592761938528056,0.996596042711563,-0.21494106749779268,0.3844162491190841,-9.724982580013947,7.865411813126331
0.5551839464882943,-1.5839231755546508,1.0208762016958546,-0.2314800429973872,0.41142291737095216,-9.194783046116616,7.572495417877581
0.5618729096989966,-1.5749983811911348,1.0415959698498882,-0.24856836572959057,0.4394422847489322,-8.669688849499806,7.281001178125117
0.568561872909699,-1.565830278182247,1.0233367137983838,-0.2678517240632779,0.47152493246548366,-8.276983922149638,7.055834675418942
0.5752508361204013,-1.5565819740570568,0.9922289161387624,-0.2878586255546453,0.5049469473816933,-7.927918081957502,6.852531590450412
0.5819397993311036,-1.548089744694199,0.9216784539840418,-0.30629550948806944,0.5357841079550704,-7.666587485640036,6.700052885775162
0.5886287625418061,-1.5400749523280166,0.8262212124794517,-0.32374097761853843,0.5649890157992624,-7.46065888582472,6.579668149440101
0.5953177257525084,-1.5321410744881723,0.725379143833491,-0.3409473131816592,0.5937930590289513,-7.264858211889612,6.465545615973815
0.6020066889632107,-1.5246859524645873,0.592676080256635,-0.3567387469631526,0.620225262807655,-7.128982543281125,6.388475342240308
0.6086956521739131,-1.5172308304410023,0.45997301667977897,-0.37253018074464606,0.6466574665863587,-6.9931068746726375,6.311405068506801
0.6153846153846154,-1.5077189357530023,0.37501159380022253,-0.3930591977789643,0.6810849135132787,-6.853482593251322,6.229769109204094
0.6220735785953178,-1.496074018313819,0.3395617224635439,-0.4185014330015335,0.7238040087256157,-6.70997072787215,6.143398202105578
0.6287625418060201,-1.483490495745099,0.3138743313581319,-0.4478173141709989,0.7732993926823799,-6.601015083728186,6.060835349960677
0.6354515050167224,-1.470428042383728,0.29230840942007863,-0.47972130573549376,0.8274027856692798,-6.512258800965725,5.972298456421905
0.6421404682274248,-1.4566684173013102,0.2754146058680061,-0.5163368098036296,0.8899897646443274,-6.456868684887776,5.862843694986282
0.6488294314381271,-1.442295881083662,0.26175623984163937,-0.5599836619827191,0.9653020918825687,-6.453192206689614,5.716530923895674
0.6555183946488294,-1.4274635445702237,0.2500093618764131,-0.6109623059909269,1.0538236422014662,-6.4973718271230165,5.544687185147978
0.6622073578595318,-1.4121516247074293,0.24000469911123645,-0.6718053946876078,1.1598744580187361,-6.601799992558488,5.349821351919237
0.6688963210702341,-1.3963307701711873,0.2317935393238939,-0.7489512731935477,1.294008625137991,-6.7984854972572695,5.142652934237165
0.6755852842809364,-1.3799673161841017,0.22515941155555969,-0.8405636505727989,1.464484554306826,-7.096725559699725,5.010761511317257
0.6822742474916388,-1.3631776584620072,0.21949784622508262,-0.9668598354436233,1.6886520676608108,-7.488470064356557,4.930965863278395
0.6889632107023411,-1.3459421879537146,0.21382059395641118,-1.1668323009802655,2.0373234834798457,-7.812262872307277,4.869591038598355
0.6956521739130435,-1.3276447714895125,0.17984730646930144,-1.859228527170608,3.24378776660821,-7.363749791399684,4.437794560628783
0.7023411371237458,-1.3077281880285958,0.04715939605860879,-6.762656489504662,11.737251590863519,-6.124432995284141,3.453531162807025
0.7090301003344481,-1.2872165356963747,-0.16220263063058873,57.818759810229224,-100.13443631777027,2.97803985377507,-1.9548709987409043
0.7157190635451505,-1.266580946866758,-0.11995724512760927,79.59965198268796,-137.8607858507698,19.71460292702612,-11.449576443303716
0.7224080267558528,-1.2449326954938988,0.04228894341202311,2.2037445547793557,-3.8067677973312612,25.688580893429297,-14.966439539493201
0.7290969899665551,-1.2238899858413386,-0.05301728908134827,27.26158732007888,-47.34469725383058,37.74082406176607,-14.114306728648723
0.7357859531772575,-1.2032860792925686,0.00845786679018369,13.54230563597158,-23.51545657742753,10.689151520877935,-2.2712133515382664
0.7424749163879598,-1.1824815836835854,0.08266596796434425,0.3450256415049518,-0.5883847945379855,-5.3906305860385295,3.0718276500977626
0.7491638795986622,-1.1626222247810858,0.1133000214693501,0.5399362585731751,-0.9265698935547144,-4.048898149328789,2.306724608820185
0.7558528428093646,-1.1426311023389664,0.1343237433918336,0.540132760471127,-0.9275052105436684,-2.3599761456114443,1.3396085391554233
0.7625418060200669,-1.121696835228418,0.14350855866913478,0.4274822169424868,-0.7329784017143062,-1.285295230785473,0.7257356384673816
0.7692307692307693,-1.0999815251324299,0.14713748248451636,0.30876480296010717,-0.5279072608488264,-0.7399021176139288,0.4160248679119398
0.7759197324414716,-1.0776976958385078,0.14858945922509248,0.22366246441363558,-0.380998870661169,-0.4551635595004534,0.25550001528575483
0.782608695652174,-1.0548256920283978,0.14901095624442623,0.1665978550393654,-0.28257888652786456,-0.3010249794157534,0.16927531319159866
0.7892976588628763,-1.0314507545787226,0.14904848637869444,0.1263509045606494,-0.21321873619552098,-0.2071442663219677,0.11707937421583023
0.7959866220735786,-1.0075978283543323,0.148820960287258,0.09728301611285933,-0.1631565476497001,-0.14741990585473652,0.08404060455282185
0.802675585284281,-0.9833146719942365,0.148670588699222,0.07578724229628325,-0.12615143955811914,-0.10803255786762829,0.06233634885423618
0.8093645484949833,-0.958545608665996,0.14853464634550936,0.059579034875535224,-0.09825335426587806,-0.08139950646742922,0.047705003848442354
0.8160535117056856,-0.9332239720699143,0.14844266035196696,0.047343513129953906,-0.07719041755774372,-0.0634450496709086,0.0378719130465819
0.822742474916388,-0.9074709668893141,0.14837283248611177,0.03754827649606597,-0.060323562122353826,-0.05037458188854872,0.030739680861029
0.8294314381270903,-0.8812616877642432,0.14847759589493958,0.029545783933358823,-0.046539120270324204,-0.040683807099588284,0.02548304112152372
0.8361204013377926,-0.8545206922491323,0.14875087114448735,0.023063078370908867,-0.035371287748026455,-0.03370545687830282,0.021745647153289804
0.842809364548495,-0.8273160302586101,0.14909650663375554,0.01754833969112459,-0.025874416565320316,-0.028384675656035526,0.01895060473406529
0.8494983277591973,-0.7996156403058119,0.14969868915057966,0.012768456550290172,-0.01765243196907369,-0.02430061221293897,0.01687572689440971
0.8561872909698997,-0.7713851837383341,0.1504405386033237,0.008611010469633818,-0.010517980400995372,-0.021258057580161024,0.015429893417442225
0.862876254180602,-0.7426638874344436,0.15141649078384115,0.004840344997256395,-0.004066886913589785,-0.018883375329741634,0.014415087233151656
0.8695652173913043,-0.7133959092599049,0.1524321614144043,0.0014393971536795656,0.0017420066729615204,-0.017158754617551855,0.01386455004251868
0.8762541806020067,-0.6836214007313282,0.15386042541219877,-0.001716634609841578,0.007138425356550452,-0.015886240179681294,0.013695761790530616
0.882943143812709,-0.6532634991032559,0.1555976289930519,-0.004553296221324603,0.012090469605804701,-0.015121880226920983,0.014085286116191508
0.8896321070234113,-0.6223951358169062,0.15744071704191195,-0.006935640222969992,0.01655256146804587,-0.014865909648204789,0.015229789594947404
0.8963210702341137,-0.5909285914015878,0.15972222246068743,-0.007361656403601417,0.018791887867161586,-0.01615093454767454,0.01897685999343146
0.903010033444816,-0.5588592017922265,0.16237157761846105,-0.0013502191353180482,0.046472836334941064,0.0015805893407071806,0.02176771734927195
0.9096989966555183,-0.5262366367942928,0.16535834199380836,-0.0309408350835043,0.041022257570520027,-0.015254392473287155,0.010867052565943013
0.9163879598662207,-0.49292262821039806,0.16879251759641523,-0.0312342177282805,0.045380333234168145,-0.013059709761703913,0.008738520773126882
0.9230769230769231,-0.4590256446868583,0.17286713407170595,-0.027202959866902503,0.04711685168745498,-0.00744860002432112,0.004300473498525868
0.9297658862876255,-0.4244774066223558,0.17739356411324897,-0.0312507940697231,0.054127740455378104,-0.00726406862895842,0.004193770299573114
0.9364548494983278,-0.3892617211174455,0.1829479376807265,-0.035693303049646234,0.061822706613363095,-0.007202187281798575,0.004158330453215803
