# n,energy,berry,bcd_x,bcd_y,qmd_x,qmd_y
0.000002666666666666667,-3.003741817820658,-0.0000000000000000000000000000003543711097672514,0,0,0,0
0.006666666666666667,-2.9797168324250842,-0.00000006095014082294978,-0.00000000005358506548545439,0.0000000005161550167137253,0.00000000003125391469284862,-0.00000000010117709542119439
0.013333333333333334,-2.9557946092394944,-0.0000003885875892269435,-0.00000000029374496281490315,0.000000002457965309618464,-0.000000000109551501972702,-0.0000000003698136993076997
0.02,-2.932078064092811,-0.0000013534680372980426,-0.0000000008429833474010768,0.000000006982265397186429,0.00000000021021417315201257,-0.0000000004697543977324588
0.02666666666666667,-2.90853110353395,-0.000003242181851230911,-0.0000000016035131586348774,0.000000013626585433278145,0.000000000026562671505111127,-0.0000000004310635652421106
0.03333333333333333,-2.8851962379623948,-0.000006238728469526511,-0.0000000030810308628543726,0.000000023751445688024314,-0.000000001190609780119675,-0.0000000014285471979179266
0.04,-2.861952309096957,-0.000011572645265018684,-0.000000004644508778277028,0.00000003854630716147173,-0.0000000022682985337753338,-0.00000000148703363854223
0.04666666666666667,-2.838925218193749,-0.000019167655993719426,-0.000000006924169636114561,0.000000056294642935059695,-0.0000000024768274765038595,-0.0000000016305130163442048
0.05333333333333334,-2.816090046284084,-0.000029646774847304924,-0.000000010809312424019298,0.00000007910463409231041,-0.00000000247216604794165,-0.0000000017915403441275875
0.06,-2.7933746922974048,-0.000043553764515292376,-0.00000001527646120997642,0.00000010226096740034057,-0.000000005554973864967036,-0.00000000320790372111995
0.06666666666666667,-2.7708777718608526,-0.00006128063623776059,-0.00000002063160372373281,0.00000013476484433236055,-0.00000000829896391780924,-0.000000003881508012762393
0.07333333333333333,-2.748461667118757,-0.00008532785694517945,-0.00000002573038908554899,0.0000001749443549765022,-0.0000000072664618371951295,-0.0000000028829739044592108
0.08,-2.7262606679132926,-0.00011363020885828593,-0.0000000236140368041189,0.000000229473890261512,-0.000000010102587428705739,-0.000000004804689904898972
0.08666666666666667,-2.7042796016186057,-0.00015054110321965428,-0.00000003524351984816594,0.00000027594204817576806,-0.00000001452353700813532,-0.000000005551510355643115
0.09333333333333334,-2.6824222452601183,-0.00019498629993132275,-0.00000004306595157749424,0.00000033142929229227816,-0.000000016281362748503678,-0.000000006366740348170211
0.1,-2.660605367622241,-0.00024798008242793294,-0.0000000491493383022083,0.0000003935895191412236,-0.000000017772488824049895,-0.000000007180645099896765
0.10666666666666667,-2.63911445766804,-0.0003148401702907278,-0.00000005699682573217869,0.00000046114490868308276,-0.000000023486397373662225,-0.000000008880467045706228
0.11333333333333333,-2.617779011275269,-0.0003897679519032412,-0.000000057056999600431046,0.0000005628989562287283,-0.000000027396887396868593,-0.000000007995437728686718
0.12,-2.5964463346559246,-0.0004778898289868676,-0.00000008182810195525069,0.000000642228052222115,-0.0000000387504702840458,-0.000000009014199881698634
0.12666666666666668,-2.5754279659846993,-0.0005837905828704939,-0.00000011270464378580221,0.0000007115528515630312,-0.00000003658563154051291,-0.000000015532711709418398
0.13333333333333333,-2.5545364417996512,-0.0007102484851029515,-0.00000012341180609292148,0.0000008261141418606366,-0.00000003923617573344995,-0.000000005127647316337692
0.14,-2.53381885018479,-0.0008513191086594736,-0.00000012266730033928508,0.0000009830006790902266,-0.000000047900682933084266,-0.000000009033748317519675
0.14666666666666667,-2.5132046155126546,-0.0010150742743525291,-0.00000013550649100302343,0.0000011117436300190891,-0.00000006003102174435823,-0.00000000958462830808325
0.15333333333333332,-2.492754128052066,-0.0012094928653700323,-0.00000015072457312321553,0.000001240856350556963,-0.00000005788278038173722,-0.000000010432047041245368
0.16,-2.4724843108215957,-0.0014239336798757163,-0.00000017459991762453378,0.0000013947573659134192,-0.00000006593070013526013,-0.000000012914139713183941
0.16666666666666666,-2.4523972772604017,-0.0016765531082764725,-0.00000020553720295247226,0.0000015498737994223549,-0.00000006789294823381463,-0.000000009913105516440734
0.17333333333333334,-2.4323889219875108,-0.001962666547810793,-0.0000002329814399075687,0.0000017140255201204219,-0.00000008221430885979333,-0.000000014135665985603591
0.18,-2.41254300651384,-0.002280277359880615,-0.000000258924844022631,0.0000019096545486922626,-0.00000010979707542982169,-0.000000014283440234300137
0.18666666666666668,-2.3928653918142464,-0.0026513257335293843,-0.0000002859388085536842,0.000002117993576642323,-0.00000012452295884383735,-0.000000026453828087013396
0.19333333333333333,-2.3733527815713797,-0.003069863856102891,-0.00000030679728574634627,0.0000023364390223301905,-0.0000001349909534918807,-0.000000027740059806055572
0.2,-2.3539725232480886,-0.0035496914128140223,-0.0000003412999088428197,0.000002585147776182763,-0.00000011256790189050472,-0.000000028183806669029533
0.20666666666666667,-2.334772849646937,-0.004074152043682025,-0.0000003682578216324788,0.0000028166061032811773,-0.0000001384546159639264,-0.000000024259680080933784
0.21333333333333335,-2.3157734147742235,-0.00466167599289895,-0.00000039312755609331386,0.0000031041530366416014,-0.00000017592124020875678,-0.00000004525537692389447
0.22,-2.2969030455010926,-0.005314778999800064,-0.0000004817880140968241,0.0000033715061176148636,-0.00000020911415611304696,-0.00000005031707168024694
0.22666666666666666,-2.2780694605271203,-0.006069242978942002,-0.00023501868513384097,-0.00008990851750052708,-0.000039118827275797285,-0.00009779664455922224
0.23333333333333334,-2.259509776422005,-0.006890728017841539,-0.0027418005102925734,-0.0011094871141053442,-0.000464075496943431,-0.0011435482684942057
0.24,-2.2412181792966592,-0.007829949657428,-0.001277175909039652,-0.0011046137317658308,-0.00047775868744596734,-0.0005507622725364109
0.24666666666666667,-2.2229463575909953,-0.008885488236004251,-0.0009798671144530076,-0.0008660357663206307,-0.00038629519873936474,-0.0004355889464636093
0.25333333333333335,-2.204761718955111,-0.010049764624138292,-0.0008711809787257615,-0.0007624098916257263,-0.00034922783481344707,-0.0003969470495547321
0.26,-2.186828884678095,-0.01134729099397184,-0.0008201522420407096,-0.0007141960534775308,-0.0003340038786303837,-0.000381017202960013
0.26666666666666666,-2.168945357132356,-0.012834418363154472,-0.0007953642585162733,-0.0006891434104580057,-0.0003277103307527478,-0.00037529866934119487
0.2733333333333333,-2.151392093255616,-0.014439169836208497,-0.0007835466112678349,-0.0006776949202253332,-0.000326556397096723,-0.00037417480000917296
0.28,-2.1340118215564248,-0.01621185782967006,-0.0007797437666843028,-0.0006740010320767006,-0.0003280661324958012,-0.0003757826910621846
0.2866666666666667,-2.1166639643238088,-0.018244853586760503,-0.0007821283078861562,-0.0006750366315157804,-0.0003310899909270936,-0.00037952782393635984
0.29333333333333333,-2.099494757770827,-0.020523316280972894,-0.0007888451353247723,-0.0006796687933410783,-0.0003352901645825076,-0.0003845988251249107
0.3,-2.082593751432808,-0.022954089107047784,-0.0007991059799576357,-0.000686780608740476,-0.0003399657880647434,-0.0003906615640428586
0.30666666666666664,-2.0656646480461007,-0.02576202193802383,-0.0008104400212424532,-0.0006955178401160352,-0.00034492396865539246,-0.00039666314216542126
0.31333333333333335,-2.0491411060505094,-0.028867860027034516,-0.0008237164346869038,-0.0007067914122422914,-0.00035059795905236716,-0.00040295578956356804
0.32,-2.0326175697589037,-0.0323437703928565,-0.0008382903303853248,-0.0007187496360421542,-0.0003561436821487704,-0.0004093843986469266
0.32666666666666666,-2.0163464915319316,-0.03617909231145694,-0.0008543726144565212,-0.0007312871948786805,-0.0003615007286040904,-0.0004160304240889379
0.3333333333333333,-2.0002836091054768,-0.04042302240003212,-0.0008713351011448605,-0.0007447883090443367,-0.00036698977232951406,-0.00042268562801527114
0.34,-1.9842725259191707,-0.04516980909652183,-0.0008883618408162965,-0.0007595644267368315,-0.0003728356496196805,-0.00042902765313896024
0.3466666666666667,-1.9686266071499257,-0.050468903799652354,-0.0009057890681556664,-0.000774593298601973,-0.0003780380282334686,-0.00043494570085208395
0.35333333333333333,-1.9530985230085844,-0.05649690122461735,-0.000924050642610263,-0.0007899891270746671,-0.00038321469333637897,-0.0004409399073553414
0.36,-1.937726728103778,-0.06316064039861097,-0.0009430387199376552,-0.0008056584981402943,-0.0003881688255944471,-0.00044685890456468743
0.36666666666666664,-1.9225334050791894,-0.07058612732074922,-0.000962506117214448,-0.0008216772016795044,-0.00039290103609461224,-0.00045267600156559645
0.37333333333333335,-1.9075322411288638,-0.0789012888408737,-0.0009821623105138288,-0.0008381209894511625,-0.00039746122217263624,-0.0004583867363398518
0.38,-1.892898416267441,-0.08824674916995898,-0.0010017694457618803,-0.0008545686703836324,-0.0004018326311873731,-0.00046366929572619895
0.38666666666666666,-1.8784168087293693,-0.09894999414127609,-0.0010219479854163124,-0.0008718392846445714,-0.0004057992343450606,-0.0004686943508088371
0.3933333333333333,-1.864127911243748,-0.11082391112357402,-0.0010423243851485696,-0.0008892251514632547,-0.0004095303881690141,-0.0004735957121932806
0.4,-1.8500893499375604,-0.1238236227325894,-0.001062579261685603,-0.0009060933131967542,-0.00041315523820584536,-0.0004784821155166172
0.4066666666666667,-1.8362010363835344,-0.13946862292946985,-0.0010835620549721294,-0.0009241415421986995,-0.0004160524944893778,-0.0004830877017013241
0.41333333333333333,-1.822674543843953,-0.15693921240443684,-0.0011040945057195243,-0.0009421804883653735,-0.00041865247083020776,-0.0004874159585469921
0.42,-1.809478200670867,-0.176084464756208,-0.001124143175709846,-0.0009601773205486984,-0.000421002335596322,-0.0004914897340318866
0.4266666666666667,-1.7965881732651,-0.19930062250573183,-0.001143438282843532,-0.000978939206688871,-0.00042278842786759347,-0.0004950936278781419
0.43333333333333335,-1.784020997491353,-0.22561617958643534,-0.0011627298813509746,-0.000998436811933973,-0.000423990981346399,-0.0004984218372849066
0.44,-1.7717424315098667,-0.2547024118268299,-0.0011820183433591998,-0.0010185921054698453,-0.0004246718865107275,-0.0005015036015109148
0.44666666666666666,-1.76009574990159,-0.2917935149319111,-0.0012005170621981762,-0.0010389612854206788,-0.0004244069155273182,-0.000504764282249819
0.4533333333333333,-1.748681718412751,-0.33314658270364755,0.030948348060278155,0.02814732904127513,-0.015303183957614978,-0.017579537780914083
0.46,-1.7378393255688376,-0.38573422576337046,0.16079388673552683,0.146038428660733,-0.07537192202086515,-0.08650287659216502
0.4666666666666667,-1.728015711559487,-0.4525275758174021,0.1943604371072395,0.17803924365169266,-0.09161907656808078,-0.10411967047830911
0.47333333333333333,-1.7194735644472579,-0.537189517803088,0.10682284572257514,0.102003306403917,-0.05274542692296725,-0.05720073129202888
0.48,-1.7111283274934008,-0.6274251849525557,0.030689608136367293,0.035352180064112664,-0.01869332939049475,-0.016466237176925125
0.4866666666666667,-1.7038807902324027,-0.7487322627947984,0.01813133166594985,0.021017826695177714,-0.011519562142759364,-0.010207686361300544
0.49333333333333335,-1.6966332529714045,-0.8700393406370401,0.005573055195532511,0.006683473326242882,-0.004345794895024036,-0.003949135545676014
0.5,-1.6879303785960145,-0.9623175891728478,-0.0013167705475906958,-0.001174882217767726,-0.0004172910996331519,-0.0005205210322229184
0.5066666666666667,-1.6774637811395023,-1.0194157988301003,-0.001337000728925782,-0.0011849758545101749,-0.0004217221539204246,-0.000521506385966698
0.5133333333333333,-1.6664367145665913,-1.0659755098567727,-0.0013570411793895933,-0.0011972198681832903,-0.0004254969825916351,-0.0005224819166627904
0.52,-1.6550079383694796,-1.1049818763714006,-0.0013769456424907313,-0.0012110051391414757,-0.0004288014692976851,-0.0005234504068053902
0.5266666666666666,-1.6429214321170966,-1.1338398427690304,-0.0013989319541456943,-0.0012274950300669534,-0.0004318640341677789,-0.0005244200920784554
0.5333333333333333,-1.6307073602822537,-1.158250830240026,-0.0014213482929804238,-0.001244863343569324,-0.0004346589107782424,-0.0005254469411992387
0.54,-1.6184110484783734,-1.1744932031278401,-0.0014440980245137313,-0.0012635548470005973,-0.00043680901335810973,-0.0005266324146402672
0.5466666666666666,-1.6059090542524073,-1.1846824161859233,-0.0014672406916874077,-0.0012828867868286615,-0.00043890624118593616,-0.0005271322353054325
0.5533333333333333,-1.5932861273593963,-1.1907126185125565,-0.0014907136870755872,-0.0013026732487504379,-0.0004409706156301504,-0.0005273327095810693
0.56,-1.5805097166746909,-1.1878299689394172,-0.0015152073977245108,-0.0013235088709830296,-0.0004429826011759732,-0.0005277819354517418
0.5666666666666667,-1.5677210129455674,-1.178840058239137,-0.0015395791743854864,-0.0013455991196827937,-0.000444834715521778,-0.0005276497751696443
0.5733333333333334,-1.5549272267863508,-1.164906957717977,-0.0015639403580037315,-0.0013685987178988772,-0.0004466044287192846,-0.0005270898686060299
0.58,-1.5421890738084216,-1.1403204223105299,-0.0015894839029202501,-0.0013921061505969888,-0.0004488394767721597,-0.0005261939345145086
0.5866666666666667,-1.5295689651206479,-1.1087692713352681,-0.00161430896927142,-0.001416688944450107,-0.0004512993016082136,-0.0005253160623900222
0.5933333333333334,-1.517056431963352,-1.0708711618303162,-0.001638479275339794,-0.0014422517310377573,-0.0004539639688949931,-0.000524454650406748
0.6,-1.5047476126614592,-1.0164449677951286,-0.0016623653601009758,-0.0014693949944237835,-0.0004571819900367712,-0.0005231335600581491
0.6066666666666667,-1.4926566314619434,-0.9538357574849563,-0.0016861818577405254,-0.0014978283273539557,-0.0004608959933968797,-0.0005214791691248434
0.6133333333333333,-1.4809243030221724,-0.8783994728823283,-0.0017098997261200757,-0.0015283584471630183,-0.0004654200789651746,-0.0005192867902323765
0.62,-1.4697134469032176,-0.7822805856324421,-0.0017322774474321304,-0.0015599550976253026,-0.00047131951813627964,-0.0005171543904544545
0.6266666666666667,-1.4587255471869531,-0.6773188154520007,-0.0017540821865218938,-0.0015920077451334683,-0.00047780699214541704,-0.0005150476348518447
0.6333333333333333,-1.4489591823382062,-0.5240095973128114,-0.0017742534509794317,-0.0016303410109493024,-0.0004894218547926673,-0.0005123084626393974
0.64,-1.439299615448733,-0.36647339481532965,-0.0017942819018653836,-0.0016692233869347072,-0.0005014850015270255,-0.000509513998674633
0.6466666666666666,-1.4312348963886978,-0.15873497224730945,-0.0018091194881450705,-0.0016818723919234052,-0.0004991622201874735,-0.0005085519073261813
0.6533333333333333,-1.4233596747995578,0.05496840419349547,-0.0018233403035350898,-0.0016914043863953765,-0.0004951301240555191,-0.0005078075357940783
0.66,-1.4138692019104586,0.2374074491877404,-0.001840233113714062,-0.0016908852627294108,-0.00048334065091294845,-0.0005057100688768731
0.6666666666666666,-1.4020447106392673,0.3746699174462439,-0.0018609869236980985,-0.0016758423962284314,-0.00046034186282349724,-0.0005016573956697039
0.6733333333333333,-1.3878033561074166,0.44253920041757333,-0.0018910508274799234,-0.0016889536531342058,-0.0004490899430714945,-0.0004981752098944379
0.68,-1.372330845334183,0.4841511917726775,-0.0019251525659626254,-0.0017120852855475248,-0.00044145542004789257,-0.0004941473913189783
0.6866666666666666,-1.3561424337996624,0.5202540672084383,-0.0019606586849637776,-0.0017373448861439946,-0.00043369023113174935,-0.0004892883726346861
0.6933333333333334,-1.3393344381332677,0.552370911745543,-0.001996942548191647,-0.0017664458122691844,-0.00042637366422542837,-0.0004844934280052578
0.7,-1.3222382031125663,0.5806529087889958,-0.0020352757179706634,-0.0017972984344585777,-0.00041936483438027053,-0.00047792112714993074
0.7066666666666667,-1.3042477330227398,0.6073852316836931,-0.0020755949844979468,-0.0018289242630101783,-0.0004120664121890093,-0.0004709402758450559
0.7133333333333334,-1.2858961221768501,0.631166355281008,-0.0021165271164937573,-0.0018631457738311867,-0.0004047719426893121,-0.0004639746120062902
0.72,-1.2673294385038965,0.653005312431006,-0.002158093100031491,-0.0018988395988725861,-0.00039597368900996284,-0.000455592681762418
0.7266666666666667,-1.2480037033390445,0.6741158874939466,-0.002200834123371425,-0.001934855341807759,-0.00038681078288539287,-0.0004464803131226234
0.7333333333333333,-1.2284563724015372,0.6940264142096596,-0.002245591323699763,-0.001971281349381719,-0.0003772842221736059,-0.0004367154518779779
0.74,-1.2082401683603021,0.7124285842409142,-0.0022914184714376853,-0.0020096617344952414,-0.0003671374558278023,-0.00042597543548933783
0.7466666666666667,-1.1876474832719226,0.7292231669544228,-0.0023378024604798213,-0.002048599913229404,-0.0003553565257405586,-0.00041367849187624227
0.7533333333333333,-1.166642961929551,0.7466853116935167,-0.002385207636764303,-0.002089782577061947,-0.00034437154038279114,-0.0004007042467864603
0.76,-1.1450174911389739,0.7625141393612469,-0.0024335600797122463,-0.002131052775495732,-0.0003305114278606043,-0.0003868767563221677
0.7666666666666667,-1.1233324468835708,0.7774778620935592,-0.002482046498712966,-0.0021734791097995474,-0.0003179958010165571,-0.0003718360468997046
0.7733333333333333,-1.1009196892287187,0.7920816563325216,-0.0025328149619501584,-0.002215517819970862,-0.00030244926252657496,-0.0003557163777880574
0.78,-1.0780840732161987,0.8062385304121044,-0.0025833329496384337,-0.0022587048335159826,-0.00028656421793790644,-0.0003381161794398706
0.7866666666666666,-1.0549832128238317,0.819827682156179,-0.0026344578608583137,-0.0023019665654071277,-0.0002706725386651389,-0.0003198688953901135
0.7933333333333333,-1.0313743196021146,0.8332870583187809,-0.0026854902906308788,-0.002346144171288361,-0.00025302204208598204,-0.0003001074218446478
0.8,-1.0071291552122041,0.8455738855472197,-0.00273834060659958,-0.002390332424839432,-0.0002339969995404076,-0.00027941052083617444
0.8066666666666666,-0.9825301502024965,0.858346641864074,-0.0027880208316845858,-0.0024339858812169202,-0.00021403862481080327,-0.0002567811984455229
0.8133333333333334,-0.9575310320320475,0.8703438989744197,-0.002840048033316094,-0.0024776692608374493,-0.00019371499599553802,-0.00023285679708236168
0.82,-0.9321582541686535,0.8820767989312588,-0.0028909499632205214,-0.0025217949259367213,-0.00017064046029796576,-0.00020856177762627496
0.8266666666666667,-0.9061445277192032,0.8937908285062155,-0.002939428984546367,-0.0025621522337888193,-0.00014701123090327735,-0.00018262470371537538
0.8333333333333334,-0.8796836356467075,0.9055045835236131,-0.002987128410148484,-0.00260382351208418,-0.00012250589881906385,-0.00015501613769327454
0.84,-0.8528454282927643,0.9169411809891893,-0.003032799067787349,-0.002641979829120974,-0.0000973667206988844,-0.00012601461019509557
0.8466666666666667,-0.8254831107285613,0.9276954820615076,-0.0030756513742581214,-0.0026780494270804314,-0.00007046515823970789,-0.00009631528414456254
0.8533333333333334,-0.7975537770695315,0.9390677543648499,-0.0031143849653045615,-0.002711301530286954,-0.00004123337944823512,-0.0000656355342457246
0.86,-0.7692956739815627,0.9492709531498336,-0.003150644403956013,-0.002740099781290594,-0.000014100082581668877,-0.000033131047532530834
0.8666666666666667,-0.7403124679608294,0.9602227147892728,-0.003180407963801218,-0.0027653692278693663,0.000015867694684916798,-0.0000004573766792511121
0.8733333333333333,-0.7110014739563637,0.9703555194695814,-0.0032021934415343103,-0.0027838323978507215,0.00004628501433251251,0.00003350411435097399
