# n,energy,berry,bcd_x,bcd_y,qmd_x,qmd_y
0.00000007407407407407407,-3.0752805685811175,-0.00000000500277798993425,0,0,0,0
0.006666666666666667,-3.027573910332587,-0.0004607296005008141,0.00000000000000000016031271017730473,-0.0000000000000000011615331939210426,-0.00000000000000000013223507531886634,0.00000000000000000017876069214544748
0.013333333333333334,-2.9805836163278348,-0.0009256389214243279,0.0000000000000000017013816136200135,-0.0000000000000000008927532683706061,-0.0000000000000000001365930518090096,-0.0000000000000000007760814792979428
0.02,-2.9397520071201817,-0.0012801466810548028,0.0000000000000000010894556029628233,-0.000000000000000005032819494179549,-0.0000000000000000008356446481635635,0.00000000000000000037815707178185307
0.02666666666666667,-2.914886628240934,-0.001354356954892805,0.0000000000000000006179502724082042,-0.00000000000000000352209756891986,0.0000000000000000011526076645753835,-0.0000000000000000027511851110722206
0.03333333333333333,-2.891677418164786,-0.0013856088406048466,0.0000000000000000009183481498279379,-0.0000000000000000024734151880013685,0.0000000000000000008109798217491933,-0.0000000000000000006547159172205936
0.04,-2.868634075291103,-0.0013987947517433855,0.00000000000000000025482129317450926,-0.000000000000000008708873375399463,-0.000000000000000002828275893047636,-0.000000000000000000482323050792033
0.04666666666666667,-2.8457629918688494,-0.00139326720111958,0.0000000000000000001548942319836813,-0.000000000000000007978414935977108,-0.000000000000000005818277375709862,-0.00000000000000000003371904640004654
0.05333333333333334,-2.8230617465851306,-0.0013675770295546164,-0.000000000000000001862029057019987,-0.000000000000000010339858803244367,0.000000000000000005755378490043605,0.0000000000000000002482725007798487
0.06,-2.800541210064793,-0.0013205472095415768,-0.0000000000000000011918298416670705,-0.000000000000000007812165681952687,-0.000000000000000001910434687592978,-0.000000000000000003464248287635411
0.06666666666666667,-2.778177439964628,-0.00125052060358131,0.0000000000000000052445268810066626,-0.0000000000000000022478269339106393,-0.000000000000000011057171074541196,-0.0000000000000000031733146450806753
0.07333333333333333,-2.7559651804239635,-0.00115761599437118,0.000000000000000003249720971710317,-0.0000000000000000006158969332321883,-0.000000000000000005787357665332924,-0.000000000000000005487055221692223
0.08,-2.7339487208950737,-0.0010388218787020264,-0.000017680449803741522,0.00001504742913018973,0.00004239873581372997,-0.00004466909186867317
0.08666666666666667,-2.7121264911398737,-0.0008932231425697066,-0.000003415317019278458,0.00001138080339577967,0.00004035117567107403,-0.000029056153969854344
0.09333333333333334,-2.6904381412954623,-0.0007217910247084139,0.000005526518573228267,0.00001107018703823746,0.00004438445887008474,-0.00002376184575810345
0.1,-2.6689256107241768,-0.0005231300321281475,0.000013995732216957879,0.000011723604378137148,0.000049754992645832616,-0.000020860812008492266
0.10666666666666667,-2.6476041123490393,-0.0002975230585946759,0.00002309324375004156,0.000012894647061184804,0.00005536705366581072,-0.000018843534723368827
0.11333333333333333,-2.626436861277466,-0.00004521852232340642,0.00003337576056804675,0.00001446090138379601,0.000060498641274429326,-0.000017189672841294505
0.12,-2.6054175342212083,0.00023282165012398272,0.000053123238088222815,0.00001304195083903374,0.0000680207483150035,-0.000039195731908223244
0.12666666666666668,-2.5845776915060608,0.0005343448225744913,0.0000736779731389176,0.000013991640176520744,0.00007048938160125255,-0.0000620148160677885
0.13333333333333333,-2.563918696262852,0.0008544024441609457,0.00008567135247285533,0.00002145828666132583,0.0000618433684134123,-0.00005577214291973011
0.14,-2.5434525594377058,0.001188946473921619,0.00010243515180949743,0.000028437651592454823,0.00004795298631987333,-0.000054441695345763176
0.14666666666666667,-2.5231390811134546,0.0015324326743795568,0.000122873791231237,0.00003599072425616409,0.000023804893481419572,-0.00005482531710851009
0.15333333333333332,-2.5029911998872163,0.0018706994788748044,0.00014704134190557996,0.00004446386343044915,-0.000016193270821255252,-0.00005658978417154273
0.16,-2.4830187959782477,0.0021878299863920666,0.000175222567937374,0.00005407633514501381,-0.00007956635531056904,-0.00006026012989259336
0.16666666666666666,-2.4632447429218667,0.002459036381932105,0.00020773554670558064,0.00006501571205466798,-0.00017657071569595007,-0.00006710496649350404
0.17333333333333334,-2.4436420693808767,0.002646199711775304,0.00024498038430474135,0.00007749918278990005,-0.0003215579426647686,-0.00007932913546172669
0.18,-2.4242154453613494,0.0026958653831187086,0.0002872354672662766,0.0000917374933565378,-0.0005339882789043882,-0.00010043800521656372
0.18666666666666668,-2.4050040308582625,0.002532137687932097,0.0003345439212570755,0.00010792264664752614,-0.0008394557999668179,-0.00013571934906056305
0.19333333333333333,-2.3859942849182527,0.002040002653655849,0.0003868298922659983,0.00012630113556622063,-0.0012724430088753053,-0.0001930174593816922
0.2,-2.3671820695454238,0.001031589464798613,0.00044366157546995867,0.0001471269883330115,-0.001877830081127623,-0.0002835596387472515
0.20666666666666667,-2.3485976674046385,-0.0007870019676452513,0.0005040365807107715,0.0001706132663690391,-0.0027110260101790595,-0.00042262843419870377
0.21333333333333335,-2.330271011969779,-0.003880909712789424,0.0005663391145024235,0.00019694787395219555,-0.0038383435199196877,-0.0006301857736007133
0.22,-2.312221727112722,-0.009035289688829159,0.0006283290822516292,0.00022625425649212827,-0.005336281553117933,-0.000931195439085741
0.22666666666666666,-2.29453078601225,-0.017707339797886093,0.0006866498726154156,0.0002586031336409915,-0.007302204112462815,-0.0013598009826622166
0.23333333333333334,-2.2774114520694275,-0.0346272157105364,0.0007353786839900021,0.00029385447956738355,-0.009879266674182742,-0.001971204155097317
0.24,-2.261648116628722,-0.07588843274588637,0.000769077127144188,0.0003293076313118181,-0.012906714270866922,-0.0027404615680308047
0.24666666666666667,-2.2456742489007553,-0.12276328309394083,0.0007885093702264499,0.00036769058534129686,-0.016666341127055652,-0.0037523348674358844
0.25333333333333335,-2.228530259775017,-0.1633998248136367,0.0007871579700266298,0.0004111532637673608,-0.021587949528022014,-0.005154097773630817
0.26,-2.209602639104709,-0.18774430895515715,0.0007496191089730855,0.000460501632267353,-0.028222669736670446,-0.007163749702791779
0.26666666666666666,-2.1895153277634285,-0.202618478381896,0.00065986004483396,0.0005112206910016799,-0.036600372387348055,-0.009869249326378527
0.2733333333333333,-2.168534963569146,-0.209353875007074,0.0005082637139093329,0.0005569329586904318,-0.046465822160424164,-0.013266350842362974
0.28,-2.14772724698434,-0.1963070647042019,0.00030754968484759644,0.0005882292009095829,-0.05663153393420864,-0.016989490958420506
0.2866666666666667,-2.129327326860266,-0.14324090898911576,0.0001038729763313392,0.0005993734054020252,-0.06513049791144986,-0.020275506304504882
0.29333333333333333,-2.113277485276261,-0.06576671738986078,-0.00008060813427879533,0.0005945857326795463,-0.07164083029740381,-0.022910724089604286
0.3,-2.098685433200526,0.019548464779152258,-0.00023543834514842333,0.0005722771763950629,-0.0757762203177261,-0.024675730915881232
0.30666666666666664,-2.083496639210586,0.10282071288853167,-0.00037346856728054275,0.0005374730574584238,-0.07839401270321454,-0.025811472919724635
0.31333333333333335,-2.0673494844029054,0.1798995450906404,0.00006011607881643724,0.00010083963880621851,-0.08686569870637614,-0.027723497750218106
0.32,-2.0498726244409027,0.24656817904616996,0.0010885568658002592,-0.0007660954584614915,-0.10459216320663656,-0.031234708420833042
0.32666666666666666,-2.031566304017015,0.3075879078776645,0.0005213437918758444,-0.000542426290837455,-0.1114841972417943,-0.03304704797834406
0.3333333333333333,-2.0126445474414263,0.36513088213006867,0.0002666817835555221,-0.000354359899304755,-0.11528093997763199,-0.03335781817988928
0.34,-1.993215467711402,0.4206937795715921,0.00019711386456842877,-0.00010815876633665764,-0.11320475070058914,-0.030986567365422765
0.3466666666666667,-1.9746570772665355,0.45440355309276964,0.00030002374354015415,0.00018964078928657802,-0.10315492380657988,-0.024790140541936036
0.35333333333333333,-1.9591469863699253,0.4497074749706985,0.0004889140554658678,0.0004402940071204233,-0.08571063165862462,-0.014877283297056622
0.36,-1.94403616092491,0.45106275643495336,0.0006301809826192394,0.00045492966723976373,-0.05844889012738906,0.00035772982888680575
0.36666666666666664,-1.9288894567652168,0.45242357638546377,0.0007145661196514511,0.0003745010155602574,-0.03221811846158974,0.014825319021765059
0.37333333333333335,-1.913385221068317,0.44027043512564945,0.0007390274125234174,0.00041115670914533965,-0.022710961633658287,0.019672908273279364
0.38,-1.8984087767593052,0.4326449444172283,0.000835750820994947,0.0004583419688855173,-0.014596875539994813,0.024455716937346012
0.38666666666666666,-1.8838257601582178,0.42906446187304725,-0.0027221057593964947,0.0025879018034262783,0.004265678728211439,0.04331081688959923
0.3933333333333333,-1.8696001255834975,0.42936432512805217,-0.005715480601768444,0.004365342304405778,0.02547376123117939,0.06327328983594939
0.4,-1.8558035955828673,0.43464710525056854,-0.0017129411427696702,0.0020712195058214668,0.037371032110464456,0.06553536129715495
0.4066666666666667,-1.8425764926178865,0.44629311272559113,-0.0005568242305651525,0.001484859111345237,0.05664369917972842,0.07711806778182825
0.41333333333333333,-1.8296921689197718,0.4624400747760175,-0.00011836578570936885,0.0013343715395922231,0.07829983718038094,0.09137704795828844
0.42,-1.8173460855019286,0.4863267708497073,0.00019162812588195314,0.001274596505878583,0.10163685384678393,0.106896192972589
0.4266666666666667,-1.8056165917363414,0.5209472243145563,0.0004223246782453044,0.0012269242982979843,0.1246614097160448,0.12313893537621332
0.43333333333333335,-1.7942087787889276,0.5611675834006278,0.0006116510270996197,0.0011855662528160121,0.14752295174862512,0.13975918557513323
0.44,-1.784074555795123,0.6295064660320001,0.0006004669423236795,0.0010130606245005083,0.15191828086897408,0.15271211162959292
0.44666666666666666,-1.7740803419378706,0.7009364928668453,0.0005672402114019186,0.0008261375930158005,0.15428357000831988,0.16526187897078873
0.4533333333333333,-1.767015328238832,0.8509699526486019,0.0004001227177587921,0.0003679610170104569,0.18959109634720742,0.3872631089433548
0.46,-1.760289014201086,1.010092226672337,0.00021752360676807297,-0.00012158025880756992,0.22870769136664515,0.6334829431828977
0.4666666666666667,-1.7535627001633403,1.1692145006960706,0.000034924495777355455,-0.0006111215346255926,0.2678242863860825,0.8797027774224384
0.47333333333333333,-1.7438797260896008,1.2915638445898576,0.0001631917946358254,-0.0009700786950135821,-0.10883275886543259,0.09948218376337015
0.48,-1.7339321036331028,1.4106216715795357,0.00031928450852982505,-0.0013173473709150976,-0.5227053852631539,-0.7726143090299322
0.4866666666666667,-1.7231779432752463,1.4988233569758653,-0.0006250804311810137,-0.0012829464519292773,-0.4753969685740467,-0.5645216963713253
0.49333333333333335,-1.7122784429797842,1.5822247116727195,-0.001669128654094879,-0.0012179648852871697,-0.38399579580667,-0.2588234443307748
0.5,-1.7003685641935473,1.639867166679219,-0.0024183805203778076,-0.0013229671570317008,-0.3768178293884284,-0.24659210832818865
0.5066666666666667,-1.6881695542735002,1.6932499831135779,-0.0031758669427284425,-0.0013310321560854174,-0.36468081788189055,-0.23486018668240546
0.5133333333333333,-1.675485539649728,1.7394874440255716,-0.00394716646909624,-0.0011764891626971639,-0.3442252273205342,-0.22396601055702167
0.52,-1.6623067396772864,1.7788896719292686,-0.004822209753107623,-0.0008771347371776745,-0.32473294607419967,-0.21507430053636253
0.5266666666666666,-1.6488788536059997,1.8149010603536153,-0.00577057897326717,-0.0004873781052475173,-0.3059829027300128,-0.20714105700908342
0.5333333333333333,-1.6351532139945115,1.846922878490385,-0.006833425141976754,0.000032693685751343385,-0.2884472207871968,-0.20029046428057276
0.54,-1.6210954913928177,1.874573326154032,-0.008042068439428202,0.0007269651096232252,-0.2714222668532463,-0.19381439082522947
0.5466666666666666,-1.6068536427431896,1.8992808717474725,-0.009343270314742734,0.001554928120666804,-0.2543499907529379,-0.18724006748170227
0.5533333333333333,-1.59244102989174,1.9209717319966892,-0.010736236843893398,0.0025285267526990135,-0.23703435335916506,-0.18039036226388666
0.56,-1.5777888594152054,1.938357828661008,-0.012232813857594109,0.0037642553653142573,-0.21854565683622523,-0.17240200484354837
0.5666666666666667,-1.5629980831810792,1.9537895663040652,-0.013745319300938232,0.005180257304290373,-0.19893163866311794,-0.16329868534898626
0.5733333333333334,-1.548100592036843,1.9670797078877609,-0.015246784721523925,0.006766780058830763,-0.17821522275089352,-0.15304635418805815
0.58,-1.5331279441132855,1.9778582950746877,-0.016703765970478943,0.008523371876722237,-0.15635066564973918,-0.14152706003171178
0.5866666666666667,-1.519080494099587,2.0039935900205363,-0.018070457062354262,0.010387577494388468,-0.11781770533158648,-0.11712012907503191
0.5933333333333334,-1.505171146657614,2.030926688956773,-0.019398381611543447,0.012572115681487602,-0.08200714017827807,-0.0950469791136935
0.6,-1.4913755575747698,2.0579820139588803,-0.020926322133948683,0.015185762628565592,-0.0494298660200505,-0.07584253455544468
0.6066666666666667,-1.4778113049693207,2.0838767325235454,-0.02485931922211488,0.01943158171707443,-0.021004888944252467,-0.061639391601405524
0.6133333333333333,-1.4644691345501701,2.111008168795588,-0.018673583924144067,0.017727924403392638,0.004270309423366389,-0.041105220430530935
0.62,-1.451316555415283,2.13912028365041,-0.007233263712783533,0.01278241615308894,0.02661582291106752,-0.018172321517824466
0.6266666666666667,-1.4386322731059074,2.1691062881560566,-0.007522051539435551,0.013244657304967314,0.039967168901254124,-0.011264635253445275
0.6333333333333333,-1.4263511118498897,2.2011619832440004,-0.0077018091275785835,0.013561932809713196,0.0522018335412969,-0.0047444452305725505
0.64,-1.4144520793035642,2.2351795907279555,-0.007778214176796051,0.013741791686805869,0.06337796749951746,0.0014084272395601116
0.6466666666666666,-1.4036529137058784,2.2660936048456355,-0.00766449110328474,0.013721224484209248,0.07222351643967993,0.006533683669682329
0.6533333333333333,-1.3930795544604444,2.2963704408957515,-0.007511734092162174,0.013659509139097067,0.08059058850389733,0.011447967100027488
0.66,-1.3846041163509657,2.092546034753094,-0.0072039415258455895,0.013468177321171958,0.0858895118971571,0.014774260302029897
0.6666666666666666,-1.3762748430385938,1.872411501417804,-0.006885347437927031,0.013267814960999241,0.09097467352392419,0.017989916232899767
0.6733333333333333,-1.366008561104033,1.5732973118727571,-0.006333008879209836,0.012933191342623631,0.09597939848035891,0.021343201213671947
0.68,-1.3540215639504283,1.2040226207800115,-0.005573026604474437,0.012479298564745443,0.10091266861660093,0.024818747085818875
0.6866666666666666,-1.3377170838451404,0.844831200431479,-0.004167519895160191,0.011738112748517097,0.1046946777549438,0.028054496973895598
0.6933333333333334,-1.320388036413684,0.4490505655925534,-0.0023177559724591747,0.010893941174370257,0.10615715052988313,0.03016696161785968
0.7,-1.3029888179056557,-0.015853438162750533,-0.0000395326545367114,0.01004056671328141,0.10509610465994741,0.030970095703477748
0.7066666666666667,-1.2861356858070156,-0.6069728869684834,0.0027461199018343546,0.009215632574398575,0.10198161421877627,0.03059329448431808
0.7133333333333334,-1.2698975328795548,-1.3027406422377843,0.005215820447764591,0.009103481745851722,0.09580270796628663,0.029402614755355078
0.72,-1.2525181258602838,-1.8052195147960746,0.002654544371163133,0.013545871241794979,0.07724610088437857,0.028058084660461412
0.7266666666666667,-1.234148676084712,-2.2589143241161147,0.004390210531315144,0.012776406797480053,0.07943331570443432,0.02914771372392762
0.7333333333333333,-1.2099906231777746,-2.2526410889030823,0.007098267781112281,0.011585751431169987,0.08006815009934608,0.029007106808455252
0.74,-1.1856218185390845,-2.1348949785012254,0.010043010714436619,0.0103077324981765,0.07638398882770531,0.026820167701709603
0.7466666666666667,-1.1619626402609444,-1.9779865507853425,0.012756287827235193,0.008988186961799347,0.06865265912819496,0.02316239560510196
0.7533333333333333,-1.1393482955259848,-1.7808942551098312,0.014834249265741367,0.007694298465634109,0.05805441639976658,0.018814182057744534
0.76,-1.1182756435076056,-1.5238137157200593,0.016019031267008325,0.006528072270571133,0.046620285348514895,0.014657880943412149
0.7666666666666667,-1.0995078116648378,-1.177092412756452,0.01634471698191538,0.00558000196123341,0.03641277560087062,0.011336728789110725
0.7733333333333333,-1.0802156484455272,-0.9112503191045023,0.01601421687521428,0.00472838846845312,0.026849566461127097,0.0085410869493047
0.78,-1.0593089599754815,-0.7741094939407857,0.015040727493458996,0.003961494208020614,0.01818995805432614,0.006300049144258164
0.7866666666666666,-1.0374838218291476,-0.6952055338667587,0.013573873268357406,0.003326640990291674,0.011279058808319073,0.004752678730088854
0.7933333333333333,-1.0149355015643555,-0.6476296207060621,0.011834453431672713,0.0028215029574852617,0.006237656752540855,0.003803878367119057
0.8,-0.9918290074729997,-0.617900538312548,0.010034480131788651,0.0024274901854622554,0.0028438835127268733,0.0032895650262567996
0.8066666666666666,-0.9680544706709358,-0.6006711947517129,0.008344425581008716,0.0021265771719628287,0.0008227407388566787,0.0030674849552436577
0.8133333333333334,-0.9437832716159322,-0.5900860812739163,0.006852424664235631,0.0018857338167245507,-0.0003677797375061839,0.0029833036883763495
0.82,-0.9190074709238983,-0.58424384906073,0.005587500000634587,0.0016866903585934087,-0.0010265735314867006,0.0029697217988656935
0.8266666666666667,-0.8937282832179072,-0.5816265433093887,0.004549907906741897,0.00151592329420203,-0.0013629491061971954,0.0029930037981334154
0.8333333333333334,-0.8679439212782336,-0.5813753905407083,0.003744655807338921,0.001364041850404143,-0.0015082258867413112,0.0030423182195837076
0.84,-0.8416320724802561,-0.5829235658432904,0.003132682693297929,0.0012204175890774473,-0.001569975386158875,0.0031175276640786477
0.8466666666666667,-0.8148400135118938,-0.5852481739706719,0.002672593459139448,0.0010762276689539655,-0.001606209619407915,0.0032233966264623506
0.8533333333333334,-0.7875696828805124,-0.5886024828559455,0.0023527187311547567,0.0009230842720089786,-0.0016479285121781472,0.0033745195200019012
0.86,-0.7597452370528928,-0.5922615018605212,0.0021481726848573373,0.0007510598584562939,-0.0017155247143674978,0.0035860094606215667
0.8666666666666667,-0.7314727023048568,-0.5964923091652062,0.0020345599996133236,0.0005523212867420645,-0.0018188656370169269,0.0038683692434073338
0.8733333333333333,-0.7026680933138227,-0.600720786398983,0.002025753012311133,0.0003047247464818182,-0.0019810056533576576,0.004269621800430027
0.88,-0.6733661628937357,-0.6050544114980058,0.0021118168653263486,-0.000003887234741084588,-0.0022097459529202817,0.004813856597236017
0.8866666666666667,-0.643495192027269,-0.6095876791684112,0.0023605762806049105,-0.0004226477813877218,-0.002557483732118839,0.0056354326688963915
0.8933333333333333,-0.6131703356393047,-0.6139710644137165,0.0028751819269641357,-0.0010168263757528346,-0.0030911578301955622,0.0069170798774058715
0.9,-0.5822981177985387,-0.6183959239945039,0.004363623219645233,-0.0021878938508712678,-0.004181785352977511,0.009702537836848046
