# n,energy,berry,bcd_x,bcd_y,qmd_x,qmd_y
0.0000015,-3.0265448451942136,-0.0000000000000026350132369444755,0,0,0,0
0.006688963210702341,-3.00260657697392,-0.00000016593835932324015,0.0000000000000000000023991948314220255,-0.0000000000000000000012682876912725225,-0.0000000000000000000007311149669982711,-0.000000000000000000003744969920178817
0.013377926421404682,-2.9788311206637035,-0.0000011084749321664616,0.000000000000000000040630595679617555,-0.00000000000000000001785597602214198,-0.000000000000000000012287377879779332,0.000000000000000000005313211395584944
0.020066889632107024,-2.9552058876156986,-0.0000035931490179597457,0.000000000000000000015270459666324808,-0.00000000000000000000996607304180775,0.000000000000000000007695149752718516,0.000000000000000000027409267425347513
0.026755852842809364,-2.931781861225767,-0.00000854459567861572,-0.000000000000000000023840530214188007,-0.000000000000000000027997955198386667,-0.000000000000000000038489794512840856,-0.00000000000000000010985335120160971
0.033444816053511704,-2.908613983624557,-0.000016890892174855816,0.00000000000000000020521601421660357,-0.000000000000000000025143971981572478,0.00000000000000000006542969284114772,-0.00000000000000000009973963410634234
0.04013377926421405,-2.885485587077468,-0.000030262839987585923,-0.00000000000000000020151534994414644,-0.00000000000000000008354338370489811,-0.00000000000000000022162505418110746,-0.000000000000000000013694151241914407
0.046822742474916385,-2.8625837364276774,-0.00005028802024168511,0.000000000000000001035781738612229,-0.00000000000000000016145352913009013,0.00000000000000000008428215966809039,-0.00000000000000000013601017894804393
0.05351170568561873,-2.8398924755539436,-0.00007825221163771561,0.0000000000000000013557974746285156,0.00000000000000000043043785530400455,-0.000000000000000000005118797493234246,-0.00000000000000000012703132344946592
0.06020066889632107,-2.8172972725483234,-0.00011579913094535862,0.0000000000000000010465423747075736,-0.0000000000000000009431253884421992,0.00000000000000000008070461696098457,0.00000000000000000004366327363220916
0.06688963210702341,-2.7948957727671213,-0.0001642595329691471,0.0000000000000000017280900231868491,-0.0000000000000000026135563838772663,-0.0000000000000000006360690275721887,0.0000000000000000002659687534194198
0.07357859531772576,-2.7727422800516166,-0.00022549416109454828,-0.000000000000000001884202698075509,-0.0000000000000000018596228311331406,-0.00000000000000000033882974468300287,-0.0000000000000000007621044110081617
0.0802675585284281,-2.750746235385365,-0.00030241688931551566,-0.0000000000000000019674450416845365,-0.00000000000000000821076687750871,0.00000000000000000040683728475846896,0.00000000000000000048071130397599145
0.08695652173913043,-2.728902074891945,-0.00040018739516434773,-0.000000000000000006531096067544578,-0.0000000000000000061024748563860275,0.0000000000000000004351804776301792,-0.0000000000000000008824405711808684
0.09364548494983277,-2.707260067150151,-0.0005193724329311312,-0.00000000000000000518441510314019,-0.0000000000000000019657182668467138,-0.0000000000000000019533696155437663,-0.000000000000000003149672108560793
0.10033444816053512,-2.685742928303583,-0.0006635742287689782,-0.0000000000000000015622003279399654,0.0000000000000000053479225342160595,0.0000000000000000042196762222798296,0.000000000000000003594528317634838
0.10702341137123746,-2.6643971207060857,-0.0008378470366643922,-0.000000000000000002974994754837039,0.000000000000000008672959536204901,-0.0000000000000000029061619158419567,-0.00000000000000000042301399380438244
0.11371237458193979,-2.6432012729682097,-0.0010421999408935232,-0.000000000000000009619158225139427,0.000000000000000008017593585401874,0.00000000000000000040286721561177107,-0.0000000000000000008253543581759665
0.12040133779264214,-2.622218743725514,-0.0012814860781514335,0.000000000000000003528969150616837,-0.000000000000000005711510478422535,0.000000000000000006675835692315508,-0.000000000000000006294855314571739
0.12709030100334448,-2.601376457139947,-0.0015672590884085117,0.0000000000000000031521458567512746,-0.000000000000000003783985153375687,-0.000000000000000003855925372364137,-0.000000000000000006560788702769183
0.13377926421404682,-2.58074749513538,-0.0019007519376273698,-0.000000000000000016873636048181384,-0.0000000000000000014704385032485708,-0.000000000000000012927981274017924,-0.0000000000000000011979127023474287
0.14046822742474915,-2.5602398925667793,-0.0022893482158258325,-0.0000000000000000018630065028991755,0.000000000000000009891284858427089,-0.000000000000000008312556431145349,0.000000000000000003453989186809034
0.14715719063545152,-2.53994634527079,-0.002733540658402122,-0.0000000000000000028081589698806114,0.000000000000000012128453573447513,-0.0000000000000000049457245997289745,0.0000000000000000064878406389399756
0.15384615384615385,-2.519811369674768,-0.0032500611099464125,-0.0000000000000000013833818013486472,0.000000000000000007119630204060386,-0.000000000000000009118724437610151,0.000000000000000003626758058226031
0.1605351170568562,-2.499786036097863,-0.0038399985137080187,-0.0000000000000000026591285848729446,0.000000000000000025505150738403736,0.00000000000000001580708079153002,0.000000000000000008210698786739948
0.16722408026755853,-2.4800229578809114,-0.004512336232904029,-0.000000000000000034895369637104,0.00000000000000001908713374350317,0.000000000000000011638221102141433,0.000000000000000012392132336298556
0.17391304347826086,-2.460367745668089,-0.005284125993534996,-0.000000000000000004430551819838554,-0.00000000000000005882091561703425,0.000000000000000004040818605516012,-0.000000000000000007510521108907684
0.1806020066889632,-2.44090566101005,-0.006166641921799728,0.00000000000000004260243699942405,0.00000000000000007683768356419932,0.000000000000000004147535138282395,0.000000000000000009936586847085309
0.18729096989966554,-2.4215919625873514,-0.007169716166291711,0.00000000000000003549786860775202,0.00000000000000017470758216255674,-0.000000000000000019245319107395855,-0.000000000000000017585438928738743
0.1939799331103679,-2.402389835640199,-0.008302721990086675,-0.000000000000000014742044549084347,0.000000000000000032413997126188683,-0.000000000000000025716753678271948,-0.000000000000000006110177782439051
0.20066889632107024,-2.3834900149165126,-0.009576592307249145,-0.00000000000000007726436166444378,-0.00000000000000002150254870317734,0.000000000000000027466262974315735,-0.000000000000000010099517126600108
0.20735785953177258,-2.364744452663293,-0.011038100508825168,-0.00000000000000008067943350065724,-0.00000000000000005589819807418954,0.00000000000000007158151787462895,0.000000000000000012240917370687342
0.2140468227424749,-2.346184148564154,-0.012677382972039995,-0.00000000000000002376450851479261,-0.000000000000000021951789713522576,0.000000000000000038838032301125623,0.00000000000000000895426728620816
0.22073578595317725,-2.32776737526829,-0.014520636732494333,-0.00000000000000001389845182597735,0.00000000000000010723816329308059,0.000000000000000018789906429371724,-0.000000000000000025711808104913303
0.22742474916387959,-2.3095193891954713,-0.016594091661817627,0.000000000000000007470239839040508,0.00000000000000012406825134887038,0.000000000000000019509500565602557,0.000000000000000020450518372148363
0.23411371237458195,-2.29155105018315,-0.01890603970632534,0.00000000000000008440343404487316,-0.000000000000000006043830862363029,-0.000000000000000008474319600045479,0.00000000000000007681845694578837
0.2408026755852843,-2.273662208574191,-0.021544183282544527,-0.0002460537401017001,-0.000000000000000032195268755062687,0.000000000000000020693833576962704,-0.000149070836554808
0.24749163879598662,-2.255954620527828,-0.024470668506319532,-0.0012794503529003419,0.0000000000000002149728770616525,-0.000000000000000046946865136811957,-0.0007753155977996285
0.25418060200668896,-2.238362830608781,-0.02778838647161577,-0.0007049757671329595,0.00000000000000000464780402002959,-0.000000000000000047468324765127467,-0.00042905047172239427
0.2608695652173913,-2.2212207151786805,-0.03153514662959575,-0.0005990215796480311,-0.00000000000000015240035998629574,-0.000000000000000023205084603443853,-0.0003647695042731258
0.26755852842809363,-2.2042110956954,-0.03572068862633502,-0.0005555574771541064,0.00000000000000002850511974523472,0.00000000000000012778696080777393,-0.0003376208153193979
0.27424749163879597,-2.187353845080864,-0.04041725730584186,-0.0005366366973037897,0.00000000000000032314354824636173,0.00000000000000012704558302271291,-0.0003247759712021437
0.2809364548494983,-2.1707235248176016,-0.045673833398569556,-0.0005298217309255969,0.0000000000000005105273007363042,0.0000000000000000433627670182436,-0.00031878721152692023
0.28762541806020064,-2.1543206382721296,-0.051558207928287574,-0.0005299515193158447,0.00000000000000033418532701773385,-0.00000000000000004862689993233675,-0.00031657999045126966
0.29431438127090304,-2.1380735496587886,-0.05817602129039754,-0.0005345183410268424,-0.0000000000000003182061082603676,-0.00000000000000016759603650831642,-0.0003166582273959874
0.3010033444816054,-2.1220349203236197,-0.06580643453240072,-0.0005421976110968552,0.00000000000000011532778551745247,-0.00000000000000006227179067758137,-0.0003181794865239623
0.3076923076923077,-2.1063811458873927,-0.07428238124564765,-0.0005518563591875626,-0.000000000000000498173944540696,0.00000000000000003235437053600907,-0.0003205525047616849
0.31438127090301005,-2.090990503028324,-0.08392017895259271,-0.0005628202209173825,-0.0000000000000004569774570652046,-0.0000000000000001146081660828166,-0.0003234135527300266
0.3210702341137124,-2.0758382892236167,-0.09482055297581449,-0.000574756626306277,-0.00000000000000008272352029528368,-0.00000000000000018128502903220246,-0.0003265808493305067
0.3277591973244147,-2.060930902649287,-0.10704360212077271,-0.0005874112712222562,-0.00000000000000039185040948725266,0.0000000000000003775457050457035,-0.00032991100559557625
0.33444816053511706,-2.0464520625963103,-0.12150046473013568,-0.0006008324191056128,-0.0000000000000004448704433141754,-0.00000000000000014493570973504788,-0.0003333785368694591
0.3411371237458194,-2.0323484659547675,-0.13790461453180405,-0.0006143410941049368,-0.00000000000000040130463851048165,-0.00000000000000012871713757161217,-0.00033674207996290615
0.34782608695652173,-2.018586834778276,-0.15634305143205876,-0.0006278912170361404,-0.00000000000000027659967158655326,0.00000000000000016881087858296251,-0.00033999636310992956
0.35451505016722407,-2.0052992775748004,-0.17842327304730932,-0.0006414492412166077,-0.00000000000000004550945947093971,0.000000000000000011987920432178288,-0.0003430808606244997
0.3612040133779264,-1.9926132296388093,-0.20520836942286225,-0.0006548229270023914,0.00000000000000015725362873061227,0.0000000000000001207767998372631,-0.0003460049349601865
0.36789297658862874,-1.9803329893658526,-0.23559138016642708,-0.0006680289760061057,0.0000000000000003332915497901603,0.00000000000000036245343350589663,-0.00034882540114604356
0.3745819397993311,-1.969221683158928,-0.2785663135661531,-0.0006805246280745578,0.00000000000000039231353081378094,0.0000000000000007434461254524955,-0.0003513717196603141
0.38127090301003347,-1.9597340802159209,-0.33762357458733905,-0.000540856516676367,0.00000000000000021093221353563196,0.0000000000000009734582506298618,-0.00044584439135028495
0.3879598662207358,-1.9534705140579092,-0.4286140200715619,-0.00009905095094062599,-0.00000000000000044779560798543,0.0000000000000009036822852734538,-0.0007228466857459224
0.39464882943143814,-1.9472069478998975,-0.5196044655557848,0.0003427546147951148,-0.0000000000000011065234295064918,0.0000000000000008339063199170458,-0.0009998489801415595
0.4013377926421405,-1.9403415631018341,-0.6053454372961383,0.0009246650800149349,-0.0000000000000013408912821893396,0.0000000000000007485166977212801,-0.001366399544511933
0.4080267558528428,-1.9308608896043793,-0.6682740724845504,0.0021154213601775173,0.00000000000000026885760913752637,0.0000000000000005952757037490714,-0.002122094882621488
0.41471571906354515,-1.921220752751321,-0.7299059097372038,0.0033583456980975654,0.0000000000000016777050528630307,0.0000000000000004462700716438829,-0.0029132185216610286
0.4214046822742475,-1.9102549550442374,-0.7807571243665065,0.005034956833450236,0.0000000000000014164058751658935,0.0000000000000003324741177025979,-0.0039988669528681605
0.4280936454849498,-1.899015775455126,-0.8294492878709323,0.006805599152467978,0.0000000000000008676644753334425,0.000000000000000224171944488008,-0.0051541389950754335
0.43478260869565216,-1.887166211302108,-0.8733208997369825,0.00878618655859008,-0.00000000000000032285425848023337,0.00000000000000012813583268243462,-0.006464860905147914
0.4414715719063545,-1.874756948842012,-0.9138949302033108,0.010885151649228523,-0.0000000000000006304659991398668,-0.00000000000000030961319549315865,-0.007875681595280123
0.44816053511705684,-1.8619956356769218,-0.9522531531567779,0.01304664855788628,-0.0000000000000004494839466290418,-0.0000000000000008032366938128484,-0.00934327920001016
0.45484949832775917,-1.8488097079601558,-0.9867595174048859,0.015184241832879072,-0.0000000000000002350796151849862,-0.000000000000000039715824286718325,-0.01082785081038766
0.46153846153846156,-1.8354019121636969,-1.0190945051511138,0.017199676298083753,0.00000000000000006557938373679827,0.0000000000000007133140671967168,-0.012249664531071985
0.4682274247491639,-1.8217936593698036,-1.0495856137558586,0.01907774430615287,0.00000000000000043465240522049183,0.0000000000000011743831291475545,-0.013594386739875914
0.47491638795986624,-1.8078772671546413,-1.077755675010214,0.020627163967492604,0.0000000000000008674726842468857,-0.00000000000000004273259537769214,-0.014731866079965513
0.4816053511705686,-1.7935814032158652,-1.1040442989740955,0.021776007745704217,0.0000000000000008702166977844599,-0.0000000000000007422281181477068,-0.015583549138931774
0.4882943143812709,-1.7790927819328273,-1.1284527208270698,0.022573285550322335,0.0000000000000005257937841215041,-0.0000000000000009031534521509212,-0.016145457716825642
0.49498327759197325,-1.7645125981890315,-1.1507649461042344,0.023143107700051842,-0.00000000000000013058270442166687,-0.0000000000000004516284321436544,-0.01645688232535932
0.5016722408026756,-1.749782531843681,-1.1706375064727375,0.03610722416713286,0.0000000000000007891132099756342,0.0000000000000005092349003251098,-0.02369507545898889
0.5083612040133779,-1.7347974323659894,-1.1890740952591143,0.019076643771637303,0.000000000000001640703123100131,0.00000000000000015462474097336016,-0.01284800454171638
0.5150501672240803,-1.7196647098207931,-1.2057704874504618,-0.0010011545186779567,0.0000000000000013800112925450924,-0.0000000000000004577353096033522,-0.00038039929450793086
0.5217391304347826,-1.7044834839527205,-1.2205133169837454,-0.0010225804197811178,-0.0000000000000006253887920276546,-0.0000000000000004401595727451356,-0.0003800649643831029
0.5284280936454849,-1.6891790860388136,-1.2330233690645032,-0.0010444591739216438,-0.0000000000000009886083490616827,-0.0000000000000009135610586593309,-0.0003794230744095386
0.5351170568561873,-1.6737425161971817,-1.2432193105864333,-0.0010665754613410087,-0.0000000000000019716354071678216,0.0000000000000009783003766469046,-0.0003784504117523619
0.5418060200668896,-1.6583053649850754,-1.2515089551147451,-0.0010888480743989997,-0.000000000000001668845999909438,0.0000000000000010865846600124762,-0.00037721697347990946
0.5484949832775919,-1.6428377999718453,-1.2579207778907848,-0.0011113120423587527,-0.00000000000000014046279915800545,-0.0000000000000004537337099333132,-0.0003757177911959543
0.5551839464882943,-1.6271399306600445,-1.2620808910887047,-0.001134135719428027,0.0000000000000006663717588707956,0.0000000000000006334039954752915,-0.0003738662838540105
0.5618729096989966,-1.6114880641177234,-1.2628622587322864,-0.0011571022173507653,-0.0000000000000014909390416463116,0.0000000000000019069624846367493,-0.00037167048404050445
0.568561872909699,-1.5958099911010775,-1.2611650030691217,-0.001180125169704298,-0.0000000000000008432273835079986,0.00000000000000020830397611010472,-0.00036915958043024183
0.5752508361204013,-1.5801432263922972,-1.2569277624707096,-0.0012032030760938809,-0.0000000000000008274491576210207,-0.0000000000000012914517002736807,-0.0003663575867518948
0.5819397993311036,-1.5644970639920532,-1.2499912063526095,-0.0012263335641642327,-0.0000000000000024342551484296524,-0.0000000000000010789970281925772,-0.0003632736203835902
0.5886287625418061,-1.5488215842246442,-1.2396699602917647,-0.0012495138354973478,-0.0000000000000015410813603012781,-0.0000000000000009272902276612184,-0.0003598491264677477
0.5953177257525084,-1.533198088472391,-1.2251080036562056,-0.001272652577214702,-0.0000000000000007498360002047565,-0.00000000000000020028549436775714,-0.00035606467467574746
0.6020066889632107,-1.5176301850492346,-1.2071792658555234,-0.0012957150023238234,0.00000000000000027797189067990256,0.0000000000000004145336596939705,-0.0003520001754575539
0.6086956521739131,-1.5021218055377172,-1.185331746241914,-0.001318664809743744,0.000000000000000024607037141725173,0.0000000000000004897552272097125,-0.0003476562769264568
0.6153846153846154,-1.486684861313486,-1.1592077661200406,-0.0013414654784140278,-0.0000000000000017228978371201105,0.000000000000000009767616243161408,-0.00034303965965566994
0.6220735785953178,-1.471391111789152,-1.128349569805454,-0.0013640231966816948,0.0000000000000005554423176906631,0.0000000000000004538101540746052,-0.00033812720142693717
0.6287625418060201,-1.456205639124419,-1.0906977363191814,-0.00138633359414719,0.0000000000000017235333963204025,0.0000000000000006067408878600988,-0.0003329218063916011
0.6354515050167224,-1.4411834189738042,-1.047621297502226,-0.0014083129550670332,0.0000000000000025080873771755823,0.00000000000000016845037632972715,-0.00032750243566940536
0.6421404682274248,-1.4263252524603194,-0.9989199173104369,-0.0014299553899915353,0.0000000000000029913601450630857,-0.00000000000000021313557033196392,-0.0003218837173270475
0.6488294314381271,-1.411619822452727,-0.9425526776609223,-0.001451255498761994,0.0000000000000029012384522310695,0.0000000000000013010625087401953,-0.0003160299986230854
0.6555183946488294,-1.3972409951989235,-0.8769037670400066,-0.0014719076813417148,0.0000000000000010803562381296502,0.0000000000000016948815415675417,-0.0003099907655428766
0.6622073578595318,-1.3831270229145374,-0.8028421381361545,-0.0014920420706305208,0.00000000000000020816226163579115,0.0000000000000012325998754559576,-0.00030384410560291546
0.6688963210702341,-1.369277001022448,-0.7203894538065824,-0.00151166565394686,0.0000000000000005718464353244187,0.00000000000000014985600086696204,-0.00029761032855064347
0.6755852842809364,-1.3559471395889435,-0.6232044753599101,-0.0015303173488996082,0.0000000000000012302167265157103,0.0000000000000000025253077814024576,-0.0002913083893527653
0.6822742474916388,-1.343159325554725,-0.5129794820488178,-0.001548043577152472,0.000000000000002081641334334037,0.00000000000000034783878264675423,-0.0002850832286137055
0.6889632107023411,-1.3307550654070608,-0.39360196953719834,-0.0015651185996001997,0.000000000000003041592419369151,0.000000000000001006284126130952,-0.0002789167652748789
0.6956521739130435,-1.3200169405883755,-0.23996008250708747,-0.0015796340005645021,0.0000000000000024058302227864254,0.000000000000000414135735849974,-0.0002733269044568614
0.7023411371237458,-1.3093806684177463,-0.08068474894397108,-0.001593960112194512,0.000000000000001998794064925889,-0.0000000000000001440967891784842,-0.00026774865902082055
0.7090301003344481,-1.2992195952621473,0.10487373282202152,-0.001607403084240738,0.000000000000002658891559327916,-0.0000000000000005440930182488507,-0.00026222460577496657
