# n,energy,berry,bcd_x,bcd_y,qmd_x,qmd_y
0.00000022222222222222224,-3.0752786306976354,-0.000000015008372215317437,0,0,0,0
0.006666666666666667,-3.027569674290833,-0.00046073110742568746,-0.000000003362541137683859,0.0000000014788629919478977,-0.0000000006414254254845449,0.0000000021597183180351086
0.013333333333333334,-2.980582485024033,-0.0009256327481583403,-0.000000003983592192861292,0.000000002071248002947876,-0.0000000009775659403701773,0.00000000545053971176398
0.02,-2.9397680334383134,-0.0012800888584349132,-0.0000000018278202847345266,0.0000000035028908065029126,-0.0000000018597371533820871,0.000000009796462594491292
0.02666666666666667,-2.914898959294671,-0.0013542412952916793,-0.0000000014029069108619062,0.000000003925467867151304,-0.000000004303044019838635,0.00000001049837236909247
0.03333333333333333,-2.891683306920008,-0.001385729524130845,0.0000000008898650271105766,0.000000004007491386960982,-0.000000004305211393230516,0.000000016053672187392772
0.04,-2.8686352969414672,-0.001398838892873931,0.000000003565415129025766,0.0000000034686402637410555,-0.000000006314922072934007,0.00000001914249469876621
0.04666666666666667,-2.8457714733194863,-0.0013933651417478742,0.00000000830953810889458,0.000000002959176624075342,-0.000000007718060649371513,0.00000002468777770879013
0.05333333333333334,-2.823067797610734,-0.001367651342090647,0.000000014122420070725941,0.000000002664890250203004,-0.000000008573244724204177,0.00000003242728324494295
0.06,-2.800536704830737,-0.0013205666206661836,0.000000019904565320607217,0.0000000010424100117392686,-0.0000000116545739983688,0.00000003863824627541803
0.06666666666666667,-2.778178880751749,-0.0012503797562922066,0.000000028862510722632574,-0.00000000013832849842178242,-0.000000012388299006264432,0.000000051441988168235
0.07333333333333333,-2.755984767637835,-0.0011575999098494532,0.00000003822507706902573,-0.0000000007110470106903507,-0.00000001586394158208689,0.00000006179047746779894
0.08,-2.7339502314887447,-0.001038821111936371,-0.00006665569426828366,-0.00000435676219813439,0.000002498959258692202,-0.0001695840527399272
0.08666666666666667,-2.712112740580752,-0.000893340914273599,-0.000028380900283526452,0.000015074429342073512,0.000028760709623928242,-0.00012960467084782563
0.09333333333333334,-2.6904361824209446,-0.0007218094252055189,-0.000009388805408285885,0.00003024617220962392,0.00004668942382857208,-0.00012552126278616272
0.1,-2.6689258373047124,-0.0005228647858933121,0.00000670995631042616,0.000046350810448051716,0.00006287440845606036,-0.00012907167625985259
0.10666666666666667,-2.647595425573472,-0.00029771988249286524,0.000023021239003055023,0.0000644885925899512,0.00007796895419054493,-0.00013514874577793417
0.11333333333333333,-2.6264364787117085,-0.00004519469628296729,0.000040985239376057226,0.00008549409324997384,0.00009148551654800822,-0.00014131826344988615
0.12,-2.6054192566767473,0.00023296329323359787,0.00008467445444069934,0.00011770942888488364,0.00006741027105414675,-0.00020134303665691962
0.12666666666666668,-2.5845782720955457,0.0005348116011193039,0.00012532902817045247,0.00015574586592037685,0.000032797874729477895,-0.000253440986471304
0.13333333333333333,-2.5639308791664965,0.0008551374089938906,0.00013543394171007517,0.00019095149767168682,0.000028527783884956393,-0.00022538619796262812
0.14,-2.543466631589428,0.0011900009009812116,0.00015686777294817366,0.0002340700191513833,0.000004278996856798292,-0.00019982148355095048
0.14666666666666667,-2.5231470653113406,0.0015339935129055115,0.00018487115848141606,0.00028505052376149334,-0.00004334282848092023,-0.0001604713910377049
0.15333333333333332,-2.5029924632044214,0.0018723805010887632,0.00021895265551895275,0.000344530333170539,-0.00012484382378978766,-0.00009670854942954546
0.16,-2.4830196896124987,0.002188943090248525,0.00025916760162688664,0.00041365131181772953,-0.00025618373860004375,0.000003729378961733011
0.16666666666666666,-2.463244823204562,0.0024603070998652794,0.00030596143167389123,0.0004932969554239173,-0.0004602094925341164,0.00015638838056776522
0.17333333333333334,-2.443646622350737,0.002646806634196111,0.0003597559032912384,0.0005846479638563855,-0.0007696866656625636,0.00038237070595995633
0.18,-2.424223803983531,0.0026956449151384573,0.00042087332882819817,0.0006887574407157948,-0.0012303089861595558,0.0007092398607761772
0.18666666666666668,-2.4050071723287223,0.0025325482039942836,0.000489229675438286,0.0008062860535183495,-0.0019037828051206198,0.0011727473719475069
0.19333333333333333,-2.3859890255431666,0.0020400619329427557,0.0005643920467232154,0.0009377430191707508,-0.002874570636878809,0.0018196414768358385
0.2,-2.367176848981178,0.001030552687298674,0.0006456438202079669,0.0010826084607165889,-0.004254292865277589,0.00270734086599917
0.20666666666666667,-2.348600479165576,-0.0007872199085710997,0.0007317734230540729,0.0012393009583671973,-0.006183929547106972,0.0039040414082560423
0.21333333333333335,-2.3302634831176583,-0.0038834181624146694,0.0008219422289384342,0.0014051778127964838,-0.0088396777308396,0.005489146483434722
0.22,-2.312222086404595,-0.009030027173155888,0.0009166331960356372,0.0015749472771437178,-0.01241703580052453,0.007535578851497323
0.22666666666666666,-2.294541564718179,-0.017689149279756816,0.0010195419371178613,0.001740658810879317,-0.017176410017924845,0.010113070956153417
0.23333333333333334,-2.27740100557982,-0.03463243175608489,0.001106104315038626,0.001898757673786443,-0.023497406790307127,0.013160782235825515
0.24,-2.2616449052756105,-0.07588232694422742,0.0008671549531037202,0.002112157851978497,-0.031355907335435314,0.016331152710598488
0.24666666666666667,-2.2456768521846007,-0.12274360114316288,0.0007624954377304492,0.0022487881781640645,-0.0408420042456058,0.02050674381604319
0.25333333333333335,-2.2285350082519524,-0.1633964522514516,0.000816623738552111,0.002292196502081007,-0.05315473949506136,0.026455805511214646
0.26,-2.209612505990742,-0.1877405437681429,0.0006775560463080025,0.0023171446414856638,-0.07046435978272832,0.034732601875427774
0.26666666666666666,-2.189503920476583,-0.2026241724668698,0.0003924005257736998,0.0022540503849407816,-0.09276524366099373,0.044676547131724635
0.2733333333333333,-2.1685284539089973,-0.20935218329238853,0.00001665873055514706,0.0020701415157035577,-0.11921502918624496,0.05578806231211298
0.28,-2.147728961409021,-0.19631976553724576,-0.00036003797677920565,0.0017299468578088732,-0.14614137199503965,0.06679736162309943
0.2866666666666667,-2.129322124234593,-0.1432446244846808,-0.0006612666702741095,0.0013240350628271596,-0.16897090759592834,0.07580288204989853
0.29333333333333333,-2.113278662929247,-0.06574710378985354,-0.0011539123467812868,0.001070270992778315,-0.18667585538811227,0.08182419562277413
0.3,-2.0986830764845057,0.01955147768739378,-0.0017077322007482926,0.0008540500012348874,-0.19803399589209564,0.08551447223803237
0.30666666666666664,-2.083492913865997,0.10282027830326325,-0.0019218335342619684,0.0005522071414925795,-0.20441890124872228,0.08721532059988266
0.31333333333333335,-2.067347457921873,0.1798888948088433,-0.00022670241846319732,0.00037155062163428566,-0.22424285364934957,0.0984511202874942
0.32,-2.0498734102795484,0.24653667287872363,0.003289976823957967,0.00036061331041890095,-0.2666003946471203,0.12423820222641062
0.32666666666666666,-2.0315598446896503,0.30756552347686494,0.0018558828917258714,-0.00011304645220323912,-0.283277776469558,0.1324061476014141
0.3333333333333333,-2.0126463683658407,0.365130965309106,0.0010637922570437795,-0.00014115484207957458,-0.28989015765102105,0.1379287133682622
0.34,-1.9932088700908688,0.4206752609963512,0.0005468910463723192,0.0002657209959419308,-0.27965021546869634,0.1395017469650904
0.3466666666666667,-1.9746522102925421,0.45437010637776737,0.0005498783265254516,0.0009855728850045006,-0.24697838263116306,0.13307804726406383
0.35333333333333333,-1.9591417774366124,0.44973041167436645,0.00040334783112498727,0.0018697846087488772,-0.19156884550317052,0.12477952744394083
0.36,-1.9440338583548484,0.45110562932390397,0.0006848914390258392,0.0021974227971674376,-0.1086493660991219,0.10943473963703904
0.36666666666666664,-1.9288910356554396,0.45246518192662327,0.0009839780986894073,0.0021782306864981016,-0.030566392152998077,0.09209266771314162
0.37333333333333335,-1.9133869430431503,0.4403388256842973,0.0006575893851504807,0.0021582795917495365,-0.003991951847356248,0.08028815907167108
0.38,-1.8984026233838132,0.43264181330467405,0.0007973655859568539,0.0024177256823628133,0.021129887974608075,0.07596509569412227
0.38666666666666666,-1.883821058717896,0.4290438503376766,-0.0073330467301845875,0.0020243517875860374,0.08408861605627893,0.08056724823877807
0.3933333333333333,-1.8695995479328902,0.42936078492730734,-0.014381998714778198,0.0015310163833748974,0.15640460056274322,0.08312416629768878
0.4,-1.8558023932061096,0.43469332359144275,-0.006171279507553265,0.0017227666856958553,0.19919332000802986,0.0668188844908723
0.4066666666666667,-1.842577034090993,0.4462849365795123,-0.003608640426561614,0.002117635476519181,0.2621002981651042,0.057675834184961264
0.41333333333333333,-1.8296950927231668,0.4623708651785658,-0.00253038711117092,0.002547582298528049,0.3314707870657879,0.050503793181504955
0.42,-1.8173523130905964,0.48625246208975437,-0.0018630943432639984,0.002945155006938044,0.4053350785411294,0.04408134832836912
0.4266666666666667,-1.8056204687394697,0.5208544772974723,-0.0014018013532524928,0.003204524428379589,0.4811227814042834,0.0443417827412309
0.43333333333333335,-1.7942083308476986,0.5610665580563237,-0.0010483094047252107,0.0033915711588748086,0.5579170181235752,0.04809941191977622
0.44,-1.7840726054651925,0.6294655251794483,-0.0011000947313923452,0.002908981555600742,0.6030345927426705,0.10610965349691277
0.44666666666666666,-1.774077234455098,0.700963923495211,-0.001196444364033945,0.0023527587133166713,0.6446690002845944,0.17008551458154594
0.4533333333333333,-1.7670141217678927,0.850999248770612,-0.00034593041342005084,0.0011127174327127546,1.7723563355425371,1.639734195467086
0.46,-1.7602892920704603,1.0100950671997397,0.000613819425911619,-0.00020621326359205033,3.0253372810433725,3.2715497633601953
0.4666666666666667,-1.753564462373028,1.1691908856288662,0.0015735692652432808,-0.001525143959896844,4.278318226544197,4.9033653312532905
0.47333333333333333,-1.743878414024093,1.2915942081793912,0.005079106710571946,-0.0009318896593346929,0.5138707713946724,1.045322187516334
0.48,-1.7339257462500282,1.410693846230709,0.008813859390536912,-0.00016646784106902845,-3.7023311920322683,-3.307011701348836
0.4866666666666667,-1.7231734226545992,1.4988820906473028,0.005543635079881959,-0.001952514589850743,-2.7138440379868296,-1.9026034364669524
0.49333333333333335,-1.712276795224075,1.5822841570820314,0.001663195790654689,-0.003982097846820909,-1.2579267988773664,0.0020478563146982035
0.5,-1.7003662158929347,1.6399182737120153,-0.000013926535424185283,-0.005569816113286321,-1.201027656351736,0.07503959107510777
0.5066666666666667,-1.6881677582413357,1.6932212453296416,-0.0017660289856696366,-0.006978834564692449,-1.1423047281775862,0.12100254995544558
0.5133333333333333,-1.6754866954046406,1.7392633956494516,-0.003643829670656235,-0.008088276941089259,-1.080524367929094,0.12165390855365019
0.52,-1.662310987467661,1.778736162331934,-0.005913594038674354,-0.009108005738011323,-1.024639493671822,0.11348139223501268
0.5266666666666666,-1.6488851691732733,1.8148700876381123,-0.008467964566314344,-0.010032395335115797,-0.9729365421617678,0.10219704687465275
0.5333333333333333,-1.6351585977986782,1.8469673533712139,-0.011474397883597862,-0.010778623472056948,-0.9277886226857603,0.08888635884064203
0.54,-1.62110173021164,1.8744000362264144,-0.01507147302504862,-0.01155885606083102,-0.8854030670781496,0.07527900803684433
0.5466666666666666,-1.6068595013227243,1.89906254252189,-0.019102808624523116,-0.012277984432991102,-0.8423004526209502,0.06121239295765719
0.5533333333333333,-1.592444223956842,1.921034662443265,-0.02359983181436776,-0.012891161595326559,-0.7972909889989104,0.04658106713371022
0.56,-1.5777902765179046,1.938286916603663,-0.028937057744823944,-0.013112796778496668,-0.7497218062840663,0.03232912391995095
0.5666666666666667,-1.5630022726317285,1.953714547520889,-0.03454778854786673,-0.013121989384462776,-0.6980858942110407,0.018242914597024706
0.5733333333333334,-1.5481067303797482,1.9671391964751308,-0.0405051670551973,-0.012842430722157763,-0.6414346840721513,0.004002840478784053
0.58,-1.533128494922126,1.9782055668824567,-0.04692212502374297,-0.012161333164463104,-0.5782677204021504,-0.01079062073905887
0.5866666666666667,-1.5190805720408782,2.0042762063491044,-0.053497675290300764,-0.011072882646806177,-0.4636052459793664,-0.03092712104820544
0.5933333333333334,-1.5051709486509015,2.03090661319756,-0.06054076275681763,-0.009097918231522515,-0.3553609148667518,-0.048971143147889286
0.6,-1.4913753644969712,2.057556415742747,-0.06856994775940466,-0.006413505982623069,-0.2557086049722313,-0.0653817502606026
0.6066666666666667,-1.4778144869398764,2.0840135861248363,-0.082734008941083,-0.004164174508061044,-0.17214194996553794,-0.08519397731342135
0.6133333333333333,-1.4644708376628384,2.11146214354634,-0.06819187351903325,0.0032519358816022587,-0.08275193752785633,-0.08840675926247515
0.62,-1.4513143226859304,2.1396741946713047,-0.03858158113751355,0.013010544861706878,0.005306223497716825,-0.08251955928352246
0.6266666666666667,-1.4386295129647702,2.1691552078326795,-0.0409336878404553,0.013408920063398387,0.04404609590379684,-0.09133963844366813
0.6333333333333333,-1.4263483508381791,2.201185654238951,-0.042009706573751235,0.013558281009417696,0.0799974213502054,-0.09900714871330697
0.64,-1.4144495613582928,2.2356311615809648,-0.04187689577121628,0.01347175242880582,0.1133071750499291,-0.10558283823855708
0.6466666666666666,-1.4036527797581961,2.2659956867729476,-0.04007498634873739,0.012734582171602173,0.14139223150544755,-0.11035026898053896
0.6533333333333333,-1.3930820306251275,2.2955231630833515,-0.037930728667504014,0.011863959018091067,0.16840565205958827,-0.11474680836928854
0.66,-1.3846055887531226,2.091858569342658,-0.03853260433440352,0.012705028282314469,0.18511885646883072,-0.11866896224491867
0.6666666666666666,-1.3762758589463453,1.8718582206590249,-0.039326854302049664,0.013666006374774076,0.20111050200702923,-0.12255788409216499
0.6733333333333333,-1.3660109413019017,1.5730775707400868,-0.038443483221277906,0.014238579952862688,0.21825634347569656,-0.12558639933566967
0.68,-1.3540255452820398,1.2042573091379314,-0.03606862346960309,0.014465842572044174,0.23642832261467964,-0.12784997025336184
0.6866666666666666,-1.3377192917261547,0.8446416825351043,-0.032276083747428096,0.015443802521385906,0.2515371114739412,-0.12809042225194572
0.6933333333333334,-1.3203891036219992,0.44889900879534855,-0.0272497015795816,0.017071380419211548,0.2592665220417551,-0.12740969695415674
0.7,-1.3029901153417878,-0.01577669969805562,-0.021258969417316705,0.019349235949748255,0.2600481846137808,-0.12516299397995023
0.7066666666666667,-1.286137651503887,-0.6069095766551497,-0.013558279852146778,0.02238969295635608,0.2545669370554112,-0.12036736099617591
0.7133333333333334,-1.269901885329722,-1.3029210641880815,-0.006392037353831887,0.02615413496097453,0.24017114887852672,-0.10983141588901653
0.72,-1.2525234942871313,-1.8046294795266795,-0.016639320816141844,0.03025004567708877,0.19954902552200526,-0.07678055704139802
0.7266666666666667,-1.2341549879638214,-2.2588153367349317,-0.013738960647577663,0.032206314555074424,0.20735467311544997,-0.07739245882274591
0.7333333333333333,-1.2099934170069668,-2.2526064986529297,-0.006969495208210234,0.03481925115037207,0.20974233614876847,-0.07937387521437586
0.74,-1.1856213785857106,-2.134892605504052,0.0011126549719561148,0.03773407786508532,0.2003065494512573,-0.0786627753787871
0.7466666666666667,-1.1619616552376797,-1.9780028421010603,0.009018007925396993,0.04021592036761073,0.1793919571701318,-0.07315761396822625
0.7533333333333333,-1.1393539296022859,-1.781105172698696,0.015628942515802418,0.04167875226213772,0.15073637012790067,-0.06352624324689642
0.76,-1.1182747364198595,-1.524121453008964,0.019993243814159813,0.04175031922028664,0.12004490389638074,-0.05161291837292719
0.7666666666666667,-1.099506291271894,-1.177334912185015,0.022957706417340337,0.04047251934878375,0.09342541112664682,-0.04028960681845739
0.7733333333333333,-1.080212555184693,-0.9112169743244039,0.024599698079307782,0.03801698991356848,0.06905861401926265,-0.029411278950708622
0.78,-1.0593106408408206,-0.774097574723727,0.024096727056503613,0.03464059152492244,0.04748715712253211,-0.018935780191116434
0.7866666666666666,-1.0374871260452847,-0.6951849750511089,0.021980098156506932,0.030722799042617214,0.03075552849535483,-0.00991343060654945
0.7933333333333333,-1.0149293642367565,-0.6476386809300535,0.019151802168883264,0.02655713304088477,0.018924643832715006,-0.002958622869399973
0.8,-0.991830382827921,-0.6178332708618143,0.016084762146321027,0.02251040032818226,0.011236790329763394,0.0019239346079642596
0.8066666666666666,-0.9680488810793711,-0.6006530404395948,0.013130800926933665,0.018864784128670375,0.006840566357247183,0.0049532193048512614
0.8133333333333334,-0.9437936952743804,-0.5900847701294833,0.010504780778108984,0.015715904847285956,0.004352611329112089,0.0067957166042644955
0.82,-0.9190032603141309,-0.5842212642224877,0.008280800694623799,0.013070068302958966,0.0030431970005204497,0.007857595653170532
0.8266666666666667,-0.8937275415483517,-0.5816695653815025,0.0064821622428396005,0.010898910675221602,0.002433987039307418,0.008443217465127106
0.8333333333333334,-0.8679435043160938,-0.5813626430448983,0.005127778764381308,0.009186601691644921,0.0022451098906057444,0.008763601076050188
0.84,-0.8416353602168908,-0.5829719556451665,0.0041521921939934835,0.007835277021991844,0.0022622899779145287,0.009002248220036986
0.8466666666666667,-0.8148394807454019,-0.5853626043881973,0.0034864032990812597,0.0067523715315851085,0.0023821751747402156,0.00926843052343352
0.8533333333333334,-0.7875666323738322,-0.5885810770308227,0.0031175556212197104,0.00589599075597777,0.0025683233745317975,0.00964089127532044
0.86,-0.7597487597648296,-0.5922734228689601,0.0030151976569544317,0.00520775054201934,0.0028103698343229923,0.010185502015376132
0.8666666666666667,-0.7314645121715041,-0.5964121953277611,0.0031474521775525376,0.004620717572490728,0.00310157963007916,0.010941690624338848
0.8733333333333333,-0.7026750871983788,-0.6007097415847571,0.0035754037171224326,0.004116888528133181,0.0034880932824960065,0.012043845694655586
0.88,-0.6733688977040533,-0.6050698471291324,0.004308499852057973,0.0036629428481628353,0.0039957628544780854,0.013558998140971758
0.8866666666666667,-0.643499380616364,-0.6095766165862772,0.005569903181158852,0.0032775248102336896,0.004768496265278239,0.015852246140572065
0.8933333333333333,-0.6131699811936099,-0.6140243552511198,0.007714204795189477,0.003032949825437112,0.006015323357524386,0.019440991217002684
0.9,-0.5822993867640477,-0.6183956508347577,0.013126671857981897,0.00347721853197051,0.009004963723814968,0.02730613367843364
0.9066666666666666,-0.550960357927927,-0.6223949571098852,0.04820656867000117,0.013124213208337367,0.0275801736708917,0.06168246028437292
0.9133333333333333,-0.519034704449449,-0.6266963398003137,-0.01973120273553764,0.011359744126627554,-0.012640369897967744,0.01074875030597203
0.92,-0.48663825461961685,-0.6307985127854172,-0.0000020608266066944954,0.0000007239649777610649,0.0000005000163892202076,-0.000000968376964288564
0.9266666666666666,-0.4537571176349424,-0.6349083319111207,-0.000001561757470598995,0.0000009562729760244086,0.0000006396643105966802,-0.0000010183837483242793
0.9333333333333333,-0.4204026685913509,-0.6394451278578885,-0.0000016170065256820273,0.0000006567560029897124,0.00000044654806465014787,-0.0000009954553054484965
