# n,energy,berry,bcd_x,bcd_y,qmd_x,qmd_y
0.00000007407407407407407,-3.336275193315595,0.000000015997196125349776,0,0,0,0
0.006666666666666667,-3.288864669028426,0.0014830870296145399,-0.0000000000000000032099913271348177,0.0000000000000000017113659783774534,0.0000000000000000015015970188693056,-0.000000000000000001919035296781086
0.013333333333333334,-3.242148627882988,0.003059059766339874,0.000000000000000006940066562066483,0.000000000000000003910579338301303,0.000000000000000004792776932936332,0.0000000000000000020556646771737352
0.02,-3.196095079548995,0.004744491816333853,0.0000000000000000010674515308399109,0.000000000000000007289147523061401,-0.000000000000000004424087262135685,0.000000000000000000013699212075344187
0.02666666666666667,-3.1507219275070404,0.006559197685297525,0.000000000000000004489989415581239,0.000000000000000015376265688340505,0.0000000000000000017680167555793174,-0.0000000000000000008226266947366484
0.03333333333333333,-3.106088025883937,0.008527208494891636,0.000000000000000009113125417864656,0.000000000000000010821094020190998,0.000000000000000009656018849519424,0.000000000000000005698570095628427
0.04,-3.0620758820602956,0.010677038067674016,0.000000000000000005756302036920585,0.000000000000000019688859947104942,0.000000000000000013895143752531714,0.000000000000000008043431639222971
0.04666666666666667,-3.0187876314787094,0.01304263869969096,0.000000000000000019661237940400978,0.0000000000000000006570918502976744,0.0000000000000000014180470811327015,0.0000000000000000190367423664976
0.05333333333333334,-2.9761937920507586,0.015665367137448462,-0.00009159937629105569,0.00003608008904718379,0.0001430301128900197,-0.00009203217787858076
0.06,-2.9342910972946568,0.01859323522816851,-0.0001027002903130142,0.00002589370669333857,0.00015429827866728023,-0.00005795972488233913
0.06666666666666667,-2.893122859050598,0.021884671703529295,-0.0001296962651456343,0.00002242463293321192,0.00016538026889319427,-0.0000399068396849342
0.07333333333333333,-2.852642459913815,0.025612784284530846,-0.00016410663251558005,0.000019447270233288026,0.00014958695156495346,-0.000023512148455087776
0.08,-2.812967421418455,0.029860591817506627,-0.00020424838973571224,0.00001570114645441504,0.00008165849132795153,-0.0000099910078768995
0.08666666666666667,-2.774146054613337,0.03477250555345901,-0.00024871055329022854,0.000010435314411768862,-0.00007898441768533216,-0.00000654344054997997
0.09333333333333334,-2.7446763044358558,0.03859473429866278,-0.00028443321513909177,0.000004989475988774813,-0.00030076172197224157,-0.000019416423104332032
0.1,-2.7238764547901506,0.04099446645060305,-0.00030977021258109656,0.0000002730913001892932,-0.0005276055885664947,-0.00004190206285687073
0.10666666666666667,-2.703327336257922,0.043731648918629254,-0.0003341058001890183,-0.000005197080723961417,-0.000827275848987836,-0.00008059971093598274
0.11333333333333333,-2.6830258439756727,0.046870197230064636,-0.00035658301397974433,-0.000011447975003683432,-0.0012142896461570809,-0.00014083394556054974
0.12,-2.663008629191061,0.050499667417006594,-0.00037607147576791146,-0.000018479387601158838,-0.0017063001359203063,-0.00022955813818303865
0.12666666666666668,-2.643313019166575,0.054795214287443744,-0.00039116315753819124,-0.000026269401014906793,-0.002327389322554993,-0.0003567535900653229
0.13333333333333333,-2.6239770686931876,0.05990126416897376,-0.0004009325908480101,-0.00003462412726205738,-0.0030833986794983263,-0.0005279370274961415
0.14,-2.605081929844026,0.06607435774090646,-0.00040442403867907764,-0.00004332650661098558,-0.003981029625445387,-0.0007493685182056945
0.14666666666666667,-2.5867057068869266,0.07368984719502905,-0.00040106591754076785,-0.00005210730281658679,-0.005019822583215764,-0.0010252062631517537
0.15333333333333332,-2.5690679752913894,0.08343108142961649,-0.0003908742207022459,-0.00006060656719757951,-0.006179733625196924,-0.0013531946780948624
0.16,-2.5523986405066026,0.09598107994655986,-0.00037472835766420273,-0.00006851097121969193,-0.007423160768148186,-0.0017233412098093808
0.16666666666666666,-2.5377877378155427,0.11472744635605914,-0.00035272106927197516,-0.0000749435163175965,-0.00868576964909381,-0.0021235888061364705
0.17333333333333334,-2.5212166257832376,0.12864026023479283,-0.00032117007275495724,-0.00008143261775972214,-0.010259813197933189,-0.0026456879166616132
0.18,-2.502590081221017,0.1374118901468719,-0.0002773275839224028,-0.00008735801855569061,-0.012210496187430109,-0.0033243435683395156
0.18666666666666668,-2.4822564938567186,0.1417930228673652,-0.00021940265710384356,-0.00009147091399369504,-0.014562444465538052,-0.004187192007855777
0.19333333333333333,-2.460499995902804,0.14235850171554823,-0.00014749634897063657,-0.00009233136105092379,-0.017314716295624713,-0.005253989912181745
0.2,-2.437487887857398,0.1392884761267906,-0.00001865785744257428,-0.00011848355218067053,-0.02043669971849776,-0.006669277936288881
0.20666666666666667,-2.4132722461837988,0.13261867789336756,0.0001417908057331173,-0.00016108212188194434,-0.023943810681367472,-0.008399071483947381
0.21333333333333335,-2.387970512254632,0.12230938041115981,0.0002193215144640621,-0.00014901690746591187,-0.027862723024410757,-0.010123587384273823
0.22,-2.361617748446223,0.10831041409796247,0.0003135664515123755,-0.00014504922630795156,-0.03217094876728087,-0.012132183497241227
0.22666666666666666,-2.3341626382728276,0.09023677653831416,0.00040160736642311354,-0.00014386295606975,-0.03709406650460278,-0.014450601957759131
0.23333333333333334,-2.3072088650039646,0.06586549444325229,0.0004682010924712639,-0.00014834638094504842,-0.042792245708450624,-0.017043441444618283
0.24,-2.2858349823884634,0.033086775795474435,0.0005042333449021413,-0.00015807809283946528,-0.048383726042410515,-0.019416162499013855
0.24666666666666667,-2.2683061089930097,-0.001394474896913442,0.0005206311703898006,-0.0001712794648920695,-0.05417361368923114,-0.021663306423293123
0.25333333333333335,-2.2509807269179753,-0.0313712538104125,0.0005211424772284154,-0.00019025599074233703,-0.061868124966037226,-0.024303467440785178
0.26,-2.2339193312548726,-0.05716119302238916,0.0004961553893510201,-0.0002133652010396694,-0.07474948143298077,-0.027477644888327563
0.26666666666666666,-2.217067615776881,-0.07996879102837094,0.000486101385269813,-0.00017339103862617686,-0.11315268505074827,-0.029989664236264105
0.2733333333333333,-2.200422713913063,-0.10010753666052008,-0.0023085190614138677,0.001486728742876446,-3.056048989934187,4.517910512736795
0.28,-2.1839914602242825,-0.11731737935174608,-0.010094162731229444,0.005971276644187592,-11.158604033454882,17.195878247564305
0.2866666666666667,-2.1683145144475624,-0.10737504344119086,-0.0022659720548404254,0.0013327407311183748,-2.96294601116173,4.575117633294838
0.29333333333333333,-2.153662487603571,-0.09667731281406318,0.0006147292054115584,-0.00037138952772186666,-0.0064405856350118924,-0.023890133040836228
0.3,-2.139772910657351,-0.08614858496544761,0.0006535379396931122,-0.00036626367500543623,-0.048653766007916856,-0.023665818496220785
0.30666666666666664,-2.127646206526831,-0.08169028685149976,0.0006377510315254978,-0.00008979295589142493,-0.04071424343660017,-0.021138660339971978
0.31333333333333335,-2.115225356681095,-0.08164589011790613,0.000649427173147791,0.0001816329399779062,-0.033206120798997374,-0.018080249801218723
0.32,-2.102111365522552,-0.09200265593443757,0.0007258187717710925,0.00044117093394753715,-0.02671457294365947,-0.01376996661978169
0.32666666666666666,-2.089009184269257,-0.10579219753114444,0.000781350308165695,0.0006757172836486088,-0.022961941780167753,-0.011247143019491045
0.3333333333333333,-2.0759136297635448,-0.12150793058529172,0.0008251768931624691,0.0008962403778910823,-0.02074616541649796,-0.009727294736029346
0.34,-2.0634286768215895,-0.14048481987491251,0.0008518802529142537,0.001092780459658471,-0.019888100263122283,-0.009150671844381536
0.3466666666666667,-2.051359518642485,-0.16024718217827885,0.0008758049908349217,0.0012813076412804066,-0.01917842756330846,-0.008686581693355379
0.35333333333333333,-2.0405810947331715,-0.18231646475125513,0.0008919172446284518,0.0014457222434301799,-0.018858349536546158,-0.00852332428482528
0.36,-2.029321020601454,-0.20398045438168555,0.0009080100296687577,0.0016166717085617918,-0.01856479515846806,-0.008395689590626606
0.36666666666666664,-2.0163713710464424,-0.22422272143604782,0.0009240345204875731,0.0018105447463922805,-0.018364282790687907,-0.008393015417249438
0.37333333333333335,-2.0025957638876455,-0.2436564607269926,0.0009410099212380187,0.0020143284850658847,-0.018195941784965416,-0.008462276201563356
0.38,-1.9880828390938319,-0.2623520144510106,0.0009589391639620008,0.0022267752611577754,-0.018055712378350432,-0.008596517902297
0.38666666666666666,-1.9725636018120531,-0.27968148550001865,0.0009804618522374182,0.002447027619577926,-0.017940596043604196,-0.00883616521798824
0.3933333333333333,-1.9565357938195918,-0.2956890469386438,0.0010055262094814262,0.002667339680587373,-0.01783271230554671,-0.009135336139014148
0.4,-1.9400142169432977,-0.3101713354451849,0.0010347068553040592,0.0028854520573703265,-0.01773020024051289,-0.009491980056851139
0.4066666666666667,-1.9230094870547247,-0.3227709223588909,0.0010688916590260048,0.0030980785433641694,-0.01763073932066581,-0.009904494904451874
0.41333333333333333,-1.9054984559452093,-0.3312352418782477,0.0011106033765739022,0.003294743445929574,-0.017534484622953594,-0.010377451519710765
0.42,-1.887690272071204,-0.33564254009761474,0.0011590248401795915,0.0034706121230158407,-0.017448939303521583,-0.010889928797756058
0.4266666666666667,-1.8696996120523912,-0.3346139046108746,0.0012146060352221449,0.003619276379111145,-0.017386995711520623,-0.011435792398756004
0.43333333333333335,-1.8516478723088698,-0.32631365024450926,0.0012783699363720176,0.003734065192436506,-0.0173709274881974,-0.012012726022791787
0.44,-1.8336750406917868,-0.3085775157087416,0.0013519420987099463,0.003809767256793241,-0.01743139190213449,-0.012620580998750418
0.44666666666666666,-1.815970974593662,-0.27777582719558,0.0014391035057151802,0.0038405447693948304,-0.01761763089697848,-0.013263505318816378
0.4533333333333333,-1.799045597642649,-0.22486458606258558,0.0015509128240285906,0.003827119602665184,-0.018031023134916325,-0.013953686912050973
0.46,-1.7829158286349949,-0.1416466509464354,0.0016430799238050804,0.003804956955262987,-0.01968162597619572,-0.014897734308780152
0.4666666666666667,-1.7683521755876734,-0.02212238765445987,0.0017016042413420228,0.003733569928741123,-0.021646201485873588,-0.015807508042497222
0.47333333333333333,-1.756992976354303,0.15437394773312757,0.001699295970363497,0.0035351546963899956,-0.02265000577896464,-0.016248305529195314
0.48,-1.7456888126384502,0.3398937387336756,0.0016783813450530127,0.003282578202833492,-0.023369400408168876,-0.01656109907674581
0.4866666666666667,-1.7344855557460614,0.5419579047785219,0.0016233522388298216,0.002930697822086939,-0.023567334042008167,-0.016639199257670413
0.49333333333333335,-1.7191412708118485,0.660582836651572,0.0015078369320401222,0.002334230166794297,-0.023365897713674345,-0.016458037920703134
0.5,-1.6960373951423102,0.6150717659456522,0.0012349827621588763,0.0011660634704155908,-0.022120854071568986,-0.015548814334917893
0.5066666666666667,-1.6743197630273745,0.5011669687044641,0.0011103117584848584,-0.0004576947245295247,-0.020274124701736226,-0.01470166432776298
0.5133333333333333,-1.6555327033548717,0.42972647848818063,0.0005795776860820547,-0.0014342925695354325,-0.01799339131821965,-0.01211661870318453
0.52,-1.6352992913823314,0.4509266382372665,-0.0005957662330819953,-0.0013024501900040833,-0.015636132313312876,-0.007539081189826332
0.5266666666666666,-1.6139711182369894,0.5347487461114983,-0.0005515289255855103,-0.00165915370412363,-0.01564751043397251,-0.008240431297538271
0.5333333333333333,-1.5937700812651074,0.6167370957605315,-0.0004964560448416353,-0.0020334562470576615,-0.01525079057826882,-0.008444653527060787
0.54,-1.5746205165485738,0.6979147362947161,-0.0004019833020094035,-0.002435909012709465,-0.014719049027471103,-0.008557003948935651
0.5466666666666666,-1.556531387258391,0.7779507620712344,-0.00025519072255520526,-0.0028764055026280575,-0.014104649708476382,-0.008630622492613746
0.5533333333333333,-1.5394153551957368,0.8587292708883558,-0.000053468187909837386,-0.003356744502939748,-0.013436359506142184,-0.008674138061320377
0.56,-1.5231031767718688,0.9398439537168565,0.00019773726042201356,-0.0038714707826210336,-0.012718648372466806,-0.008677296452390132
0.5666666666666667,-1.5074976159282472,1.021416187103028,0.0004933165398140569,-0.0044147716096661575,-0.011951602392468131,-0.008632526927004613
0.5733333333333334,-1.4927961198425252,1.1041300541038763,0.0008456850596791815,-0.0049896792174860555,-0.011109208234747023,-0.008503331399169664
0.58,-1.4790057842329332,1.1879061636747834,0.0012431252850408356,-0.005574943181921307,-0.010174914963616277,-0.008254309363583207
0.5866666666666667,-1.4657145128859776,1.2723981294105082,0.0016610750268667683,-0.006160449761764603,-0.0091908258485178,-0.00793714096817935
0.5933333333333334,-1.4536773559439273,1.3593896873405107,0.0021087268890189635,-0.0067181818180581405,-0.008084423330246344,-0.007435580765497561
0.6,-1.442211725076388,1.448040502157419,0.0025492496129120978,-0.0072451092509262,-0.006949656579773503,-0.006872834487432817
0.6066666666666667,-1.4320254982065208,1.540405688004718,0.0029738132259345767,-0.00770307822307824,-0.005751394367434889,-0.006173118589016344
0.6133333333333333,-1.4224870301953445,1.6228566230023231,0.0033724345961391746,-0.008124246336299587,-0.004590050610357536,-0.00547848401027755
0.62,-1.4160013426984717,1.6585833312266447,0.0036487944606781704,-0.008371978079572497,-0.0036026974353117946,-0.004807796851926457
0.6266666666666667,-1.409515655201599,1.6943100394509665,0.003925154325217167,-0.008619709822845406,-0.002615344260266053,-0.004137109693575365
0.6333333333333333,-1.4030299677047264,1.7300367476752874,0.004201514189756159,-0.00886744156611831,-0.0016279910852203283,-0.0034664225352242835
0.64,-1.3945579092596285,1.7644973237509067,0.0045362082207096475,-0.009098175881475889,0.00009955475033759736,-0.002226174662126217
0.6466666666666666,-1.3856611872730829,1.7986872151577384,0.00488337343370449,-0.009325276339853989,0.001985345367338551,-0.0008641611790296613
0.6533333333333333,-1.3760197068354834,1.8400660336544927,0.005228617212879506,-0.009498102390965012,0.004643304936327154,0.0010269594197106506
0.66,-1.3651675539429675,1.893131105587989,0.00557073752699505,-0.009582700467231049,0.00855649521721999,0.0037781916555913887
0.6666666666666666,-1.3541067286917376,1.9527679740224857,0.005881566821802176,-0.009573799043927921,0.014758435976538252,0.007954117835773915
0.6733333333333333,-1.342702629867162,2.023215685263868,0.006140921258713313,-0.009411087563936249,0.024725454008512504,0.014473717055348488
0.68,-1.3311438983566908,2.111674399734686,0.006312642161993983,-0.00908039555460801,0.026392575526501105,0.017111103338255267
0.6866666666666666,-1.3194123266691429,2.2202648539439513,0.006386410970716928,-0.008561943860011181,0.018782514960454924,0.015409158854594724
0.6933333333333334,-1.306032377880849,2.329907020432581,0.006511068089699151,-0.008007285239541308,-0.056947774331899216,0.04688627183490583
0.7,-1.2914487348278427,2.440103045711142,0.00664016289084168,-0.007413958959788893,-0.12091722250858512,0.07807832685646036
0.7066666666666667,-1.275306448450703,2.5495497271228014,0.006550898452252817,-0.006686815126293436,0.25156473488081116,-0.05898292720374926
0.7133333333333334,-1.2585103550965842,2.6526386020475874,0.0058482562471258905,-0.005673459180214345,0.207339485383277,-0.0071878512101788555
0.72,-1.2411643580895064,2.7572672479793288,0.005081535049632381,-0.004692159486877082,0.10710389633427864,0.04739565696577471
0.7266666666666667,-1.2233005485257131,2.8679797639973423,0.004429758234185554,-0.0038691955298318166,0.08808510505780252,0.04254386029459158
0.7333333333333333,-1.2049653985462374,2.9863024563071785,0.00371392677062935,-0.0031418994668909257,0.07791276529635258,0.03794968941854088
0.74,-1.1860590904276478,3.116142389275346,0.0029031032270558053,-0.002555896571956153,0.07078262766802726,0.03393809197546124
0.7466666666666667,-1.1666180331763798,3.2606472045626282,0.001931567113589249,-0.0021529632938295,0.06495107730016249,0.03006380285200459
0.7533333333333333,-1.1467098224079908,3.4224917756661584,0.00021144182440374095,-0.0018136989441319214,0.06160699964645459,0.025285269206974718
0.76,-1.126333926489519,3.6067576638206553,0.0009721923568939662,-0.0031898754637997477,0.04819254418854987,0.02354515359321105
0.7666666666666667,-1.1054654461362468,3.8203305347717316,0.0013375728207690534,-0.0037234938219183134,0.04109904178550226,0.022531243031533452
0.7733333333333333,-1.080180191272137,3.9835888575302807,0.0008999420289311409,-0.0034933532294549345,0.03930235978136597,0.021088093157743442
0.78,-1.0481704680802448,4.006484458158323,0.00038441302733401657,-0.0033535591451636588,0.037306746706437834,0.019489776834804316
0.7866666666666666,-1.01621226514637,3.995560267867407,-0.00008184939477517132,-0.0033545408503584248,0.03531802109878356,0.018061074762810908
0.7933333333333333,-0.985239555754443,3.967452826857658,-0.0004240762758371339,-0.0034910022057752696,0.033133350583898144,0.016820019382611375
0.8,-0.9553563713827344,3.9196821086588143,-0.0004304741947473278,-0.0038351675172513177,0.030567177308108526,0.01590586201036933
0.8066666666666666,-0.9265110719293612,3.852969959376524,0.0005546261000542659,-0.004706933843513665,0.027539027684967698,0.015893072886565312
0.8133333333333334,-0.8989263642614774,3.761268028812395,0.00858988586241955,-0.009497150519228505,0.023295430603015067,0.02231466194782692
0.82,-0.8728004563608944,3.6387918682261358,-0.006597927781822713,-0.0007749120330395596,0.022097042967792704,0.007644515361431128
0.8266666666666667,-0.8484880579122318,3.475387101619434,-0.006981865488936827,-0.000551697940659991,0.018944536095784562,0.0064060856322580885
0.8333333333333334,-0.827186248150151,3.2341989917868204,-0.007213476566327068,-0.0003473139932006602,0.016187362724357307,0.005417360090391932
0.84,-0.8068612074237766,2.9807441075375203,-0.007333976046565028,-0.00015082685046101493,0.01364175743795533,0.0045794147454274155
0.8466666666666667,-0.7842192132789266,2.8210139943281467,-0.007348835924195793,0.00006338356728327627,0.01098657218200107,0.0037837559269820755
0.8533333333333334,-0.7598721384282696,2.721083756164026,-0.007234348029671538,0.00028203545136703845,0.00841717581459738,0.0030933405070543247
0.86,-0.7343922151967948,2.654808510371015,-0.006991062181525368,0.0004934157301545727,0.006091189623964231,0.002542704293990743
0.8666666666666667,-0.7079874939279744,2.610710095619476,-0.006635258855361251,0.0006915104536639649,0.004083941912170595,0.002134230378765428
0.8733333333333333,-0.68074865595583,2.58398116015785,-0.006186583510315838,0.0008712774587801454,0.0024663158724086984,0.0018675797388873904
0.88,-0.6526625486022218,2.5695992778812067,-0.005683436038977399,0.0010344013961496265,0.0011968487034547282,0.0017080907674194106
0.8866666666666667,-0.6238709764407353,2.564247132802161,-0.005160915618371634,0.0011831796488311203,0.0002240059032483254,0.0016256082906157218
0.8933333333333333,-0.5943704237615047,2.56738755737309,-0.004649105019806013,0.001319412228726014,-0.0004816754978715799,0.0016013768793136593
0.9,-0.5641041859004088,2.5775569474614217,-0.004175389678577396,0.0014468599073914309,-0.000975138414689522,0.0016158947670755703
0.9066666666666666,-0.5331426642388196,2.5937400694856616,-0.003754247937374869,0.001570233022402334,-0.0013310809043787215,0.0016521661084889692
0.9133333333333333,-0.5014003558677302,2.6164844625087387,-0.003416089168411053,0.0016930009281240946,-0.0015747869610867097,0.0017063647863885232
