# n,energy,berry,bcd_x,bcd_y,qmd_x,qmd_y
0.00000022222222222222224,-3.0355199134896567,-0.0000000035030824050254847,0,0,0,0
0.006666666666666667,-2.9876044277260365,-0.00010453775283197728,-0.0000000005032326422811384,0.0000000002518138014726178,-0.00000000008764575526451039,0.0000000007937314712204542
0.013333333333333334,-2.954460169932411,-0.00014293082101385105,0.00000000020621215904913077,0.0000000005880374058953675,-0.00000000040514919225522647,0.000000001350402055863711
0.02,-2.9307735072162946,-0.00013609401005833442,0.0000000012360592706259853,0.00000000041815014954244525,-0.0000000003599269931596933,0.0000000024711439093377026
0.02666666666666667,-2.907242127701841,-0.00012067956786474594,0.0000000032758920302109738,0.00000000009430266280563082,-0.0000000006452618547607465,0.000000003567583451007564
0.03333333333333333,-2.8838812705328345,-0.00009597338878052225,0.000000005873399244562179,-0.0000000007192230731560275,-0.0000000013127999641916522,0.00000000389052592819691
0.04,-2.860680066549767,-0.00006127204402308842,0.000000009829916947990805,-0.0000000015974512643481317,-0.0000000017648745510135722,0.000000004997660336819849
0.04666666666666667,-2.8376700688608545,-0.00001575872973951657,0.000000014530332304611216,-0.000000003066283020444636,-0.000000002088768287852555,0.000000007044150825380141
0.05333333333333334,-2.8148118705071203,0.00004281594131372325,0.000000023804585431772372,-0.0000000033222756732538313,-0.0000000022162490541316656,0.000000009988474546533931
0.06,-2.79214468441479,0.00011405143855819645,0.000000029159076136671278,-0.0000000065997674273503,-0.0000000032747097242903718,0.000000010207765657371149
0.06666666666666667,-2.769629025844111,0.00019919557929620188,0.00000003934358194488628,-0.000000008475772795934688,-0.000000004408276757166257,0.000000011542822123542967
0.07333333333333333,-2.7472657682857267,0.000298615452346773,0.00000005134919559201272,-0.000000011186825878497758,-0.000000005251397889844208,0.000000015139210367984178
0.08,-2.7251061317902545,0.00041397590029607556,0.00000006621737926521974,-0.000000013374147596426812,-0.000000004079249355922785,0.00000002142862028996257
0.08666666666666667,-2.7030888547814627,0.0005462903269506275,-0.00013679175153390096,-0.00003108978250440447,-0.00004057943256546387,-0.000113400002439539
0.09333333333333334,-2.6811890037985022,0.0006971688890848192,-0.00008536926513624987,-0.000011701555934799516,-0.000010699094470888503,-0.0000757633600703625
0.1,-2.65946421901585,0.0008671443514057344,-0.000061301938969065,-0.0000017811442040211917,0.000004947732429785994,-0.000059217149554203113
0.10666666666666667,-2.6379945958215925,0.0010588758180206624,-0.00004419286017370976,0.000006674105792840824,0.00001108724252983461,-0.00006361350791113855
0.11333333333333333,-2.6166254544440024,0.0012750256240019518,0.00003662750387536952,0.000031369655355087707,-0.000005911565503422117,-0.00012902961723414171
0.12,-2.5954304967644513,0.0015131918494605597,0.000016602654725249976,0.00003503662382473387,-0.0000017501921644305165,-0.000108207315190326
0.12666666666666668,-2.5743802685633446,0.0017758535574611582,0.00001117080976706446,0.000043284458662662376,-0.0000002515358615919778,-0.00010156780507748849
0.13333333333333333,-2.553488334646194,0.0020667506813456383,0.00000953951133035043,0.00005370413325108996,-0.00000013027774426971286,-0.00009836817265900193
0.14,-2.532760580264099,0.0023851157519156193,0.000009584455266418242,0.00006600101034693684,-0.0000015581507456839983,-0.00009580122540110823
0.14666666666666667,-2.5121821769730377,0.0027311694928177426,0.000010730881705466653,0.00008018422545420494,-0.0000051484569560158345,-0.00009221180769634496
0.15333333333333332,-2.491778115971297,0.0031070312988806296,0.000012723603920746187,0.00009648798877393395,-0.000012035473867790875,-0.00008599383688387355
0.16,-2.4715116187022574,0.0035158154775252757,0.00001561451006823527,0.00011514024520471939,-0.000023817301489068427,-0.00007528544060050932
0.16666666666666666,-2.4514081639335825,0.003956433129345704,0.00001945059192844539,0.00013644576388683008,-0.000042894574021446735,-0.000057631582812882554
0.17333333333333334,-2.4314870366558012,0.004428314528572316,0.00002429011900314548,0.00016073269202731855,-0.00007275943194358538,-0.000029789667703011634
0.18,-2.411730098042159,0.004922876965872393,0.000030300157640335577,0.00018843088165127313,-0.00011852551464749414,0.000012747848010090735
0.18666666666666668,-2.3921163684100955,0.005441700052797889,0.00003774556177113414,0.00022008649748567446,-0.00018770241249596416,0.00007623515079183088
0.19333333333333333,-2.372656687801978,0.0059780683669419825,0.00004684838222198393,0.00025620192527845207,-0.00029117691649791877,0.00016906632137518286
0.2,-2.353367451738333,0.0065113451606499334,0.000057786594016797914,0.00029736471777317656,-0.00044459774779842786,0.0003028566957389249
0.20666666666666667,-2.334246187095758,0.0070205116645360305,0.0000708423134620931,0.0003442938790604045,-0.0006706165327247122,0.0004937397134692009
0.21333333333333335,-2.315295714936298,0.0074702409740418,0.00008627632468878095,0.0003976817162053663,-0.0010017915063518959,0.0007637294583613659
0.22,-2.2965242707983378,0.007782797050701862,0.00010437890299223769,0.000458163626598367,-0.0014846130913712305,0.0011426004768496062
0.22666666666666666,-2.2779236389567017,0.007833015554658734,0.00012571307918153132,0.000526367205715214,-0.002185837680326321,0.0016711976775497651
0.23333333333333334,-2.2595010347441904,0.007409272353474512,0.00015168059678470413,0.0006025184798565518,-0.0031991447841356957,0.0024035882829870152
0.24,-2.2413218043920433,0.006048639837257599,0.00018775088708526528,0.0006852152010566697,-0.00464721376696365,0.003401344290101841
0.24666666666666667,-2.2233407374278893,0.002805757243113425,0.00025731420807374993,0.0007689861634782917,-0.006698257869226281,0.004717437597112819
0.25333333333333335,-2.2056710063518667,-0.004852429855749336,0.0004631675271739575,0.0008291088542676696,-0.009571740164170145,0.006244879247435185
0.26,-2.1885645993004093,-0.02901239192941301,0.0008702107534085467,0.0009087170383754077,-0.013171044102858704,0.004599745764793225
0.26666666666666666,-2.1720342285159417,-0.09372693936483695,0.00018795534477051385,0.0011142652397370498,-0.015415181651383628,0.002269596605425975
0.2733333333333333,-2.154231698656267,-0.1467041813850464,0.000026553827065786125,0.0012784082163245748,-0.02445503816240443,0.003421872576073171
0.28,-2.134841816402077,-0.1752084170199076,0.0002958153064434677,0.0013446351952249686,-0.03988282368326503,0.01216521446417652
0.2866666666666667,-2.116318256214747,-0.14426389061860984,0.00044248711262449435,0.0012779354247997798,-0.05854901868541733,0.02352729968374214
0.29333333333333333,-2.099591748730947,-0.05505909456087582,0.00019638004136286118,0.0013089557925962483,-0.0840220459984028,0.03904299549927147
0.3,-2.083437488501053,0.05188938664875918,-0.00046877556818455057,0.0015101100731733418,-0.11948628064849148,0.062172280150949964
0.30666666666666664,-2.0653295729379524,0.128346734466558,-0.0005724450237065069,0.0012888676729020364,-0.16995599430633826,0.08397483348950728
0.31333333333333335,-2.046167767033116,0.18618856966091965,-0.0008234080519733463,0.0009423014129344215,-0.24682026530133172,0.11744262576899124
0.32,-2.0285232611628055,0.17708605136776054,-0.0015053992903123867,0.00027703328610037504,-0.31651187590083546,0.15827590739042058
0.32666666666666666,-2.0120230196808584,0.15688242395571855,0.002445504012829083,0.00023994082462227377,-0.4555614708235728,0.21612130451050413
0.3333333333333333,-1.9958015748714508,0.14454486244165382,0.002557238923774672,-0.0005549757398733161,-0.6024276376330012,0.2855610156837525
0.34,-1.979755526991815,0.13881766072284543,0.00129777376981788,-0.0016779852979772146,-0.7514303856804065,0.3547794868979343
0.3466666666666667,-1.963871242524892,0.13721639200036467,0.0004923537040450651,-0.002725160885768808,-0.9040742718832097,0.42084647361132294
0.35333333333333333,-1.9481407121945784,0.13883015171028662,-0.00029124410151206554,-0.003576826075782761,-1.0625868758995392,0.4918486194599251
0.36,-1.9326583088284504,0.1432084495838047,-0.0006928805585587074,-0.004021606208529497,-1.1758557903285731,0.5407797798550676
0.36666666666666664,-1.9173246651310147,0.14937031399354564,-0.004099520258862812,-0.004759063394723917,-1.2007797131147107,0.5724741361893726
0.37333333333333335,-1.9021631657846514,0.1572728209108255,-0.006063596110266885,-0.0048721154498171295,-1.1518677469599303,0.5835427796996586
0.38,-1.8871899429507524,0.16689546860950313,-0.004176653166363285,-0.0038269572338421,-1.0344422255687185,0.5717163151695094
0.38666666666666666,-1.8724899771229746,0.179096043686707,-0.002523564437767044,-0.0019707994702627086,-0.7694146623642919,0.5265227738391962
0.3933333333333333,-1.8579793612879867,0.19371866004404162,-0.0007894569457140871,0.0010426319665198989,-0.3616568455709603,0.4603490758579052
0.4,-1.8436228742235117,0.20947728213622233,0.0007503462326030609,0.0034251840137456287,0.20156537734104876,0.34825241136505963
0.4066666666666667,-1.8294143859139496,0.22575573395801668,0.0019257137749683362,0.004127021698784518,0.9409156491764646,0.17234603591378028
0.41333333333333333,-1.8152976070199767,0.22334832449135014,0.0028253255271205456,0.005393921946602798,1.2884601053575941,0.11621957418457216
0.42,-1.8014678004249067,0.2224166933166978,0.0033774642005465947,0.006627590224087919,1.6482241380572358,0.0638320888337431
0.4266666666666667,-1.7879173773553245,0.22347194569795942,0.0035327040319227503,0.007764832610555436,2.028362540102039,0.018499326835314234
0.43333333333333335,-1.7748637507737925,0.2294274627353911,0.002698491526614655,0.008467788052412412,2.4595131897707163,0.009057243604285005
0.44,-1.762175848402237,0.2434739525362714,0.0004141692900171464,0.007038007788419594,2.9523806195044333,0.43824305634824
0.44666666666666666,-1.7497317855449168,0.26413183774245985,-0.0019456668843585224,0.004545784816103096,2.5542795779065037,0.10212769565239066
0.4533333333333333,-1.7378534950077769,0.3332655569246574,0.019789561977658604,0.009377940053982296,-25.292306650290357,-30.811773854893
0.46,-1.7262253113095418,0.3980725542878403,0.02953774213602429,0.008198538561359398,-34.817836658416006,-39.79084625306622
0.4666666666666667,-1.7150268436560798,0.45544568140965386,0.01869061518490912,-0.003309498455455641,-12.865411687724436,-11.083032249461112
0.47333333333333333,-1.704210012106677,0.5091083951183699,0.013382674433350172,-0.00924863892431255,-3.9169716125375436,0.4006498517763058
0.48,-1.693645491469925,0.5603180448097889,0.011736853461564306,-0.011506017223589134,-3.5658504549767303,0.4969490673951331
0.4866666666666667,-1.6839778960915686,0.629648996573704,0.010276970598524475,-0.013053381176019592,-3.349836007858426,0.5036606508605262
0.49333333333333335,-1.6746418158196752,0.7056778145528726,0.008885812850915992,-0.014338314697840727,-3.1837587378649674,0.4772594937345108
0.5,-1.6668743929673326,0.8193870025559983,0.007515532295956352,-0.015278612484422457,-3.0736216323306302,0.4524694285831089
0.5066666666666667,-1.6601016180272394,0.9569884062271294,0.00615848946634259,-0.016000385046649815,-2.9989548386035056,0.4287009180739247
0.5133333333333333,-1.6533288430871464,1.0945898098982583,0.00480144663672885,-0.016722157608877162,-2.924288044876383,0.4049324075647408
0.52,-1.644069898213574,1.1730597364638982,0.001855837145313106,-0.01818698389365597,-2.8500342203175233,0.3549644864795428
0.5266666666666666,-1.6337050842634455,1.225227489915188,-0.0017963800174762906,-0.019982326657990008,-2.7759640878814786,0.29334284953612605
0.5333333333333333,-1.622682372947603,1.2682249319314571,-0.006202198860979342,-0.020730529506914883,-2.435734007493152,0.23335253689616361
0.54,-1.6114694272105872,1.3083723614023028,-0.010850249931598081,-0.021151432091427013,-2.0264501946354714,0.17384741982873708
0.5466666666666666,-1.5997853066615484,1.3317827899227264,-0.017285003767977987,-0.0195656675872535,-1.8319385879532801,0.11620217741129454
0.5533333333333333,-1.5880437360565094,1.3503638048220896,-0.02406482389466376,-0.018171655257023564,-1.647697654135409,0.06128592243575384
0.56,-1.5761837300416068,1.3589888053772288,-0.03155601090883465,-0.01717294710740744,-1.4846300913280694,0.011995575748189394
0.5666666666666667,-1.564320909587792,1.3576548740830185,-0.039540382964165594,-0.01637749105700602,-1.3343266649687704,-0.035074663533620855
0.5733333333333334,-1.5524566343122648,1.351173035608958,-0.047779689067925686,-0.01568709877817114,-1.1906211941592637,-0.08099729913393232
0.58,-1.5407489558740786,1.3285845297840257,-0.05665368181570388,-0.014666399287983313,-1.0234176413386054,-0.13076374155616036
0.5866666666666667,-1.52914786347929,1.2997381219081585,-0.06515212017479285,-0.013373909970418955,-0.8487903905787837,-0.18070020012877036
0.5933333333333334,-1.5177890164617813,1.256790092721513,-0.07277621819079583,-0.011462496012841389,-0.6575114507585595,-0.23096008190431216
0.6,-1.506857640706837,1.1971435241117871,-0.07953336512839712,-0.009234142592654163,-0.45037827743316466,-0.27900533081643875
0.6066666666666667,-1.4962591481229177,1.1244933614796038,-0.08561539434610488,-0.006758980035628546,-0.23089899342017256,-0.3253259865809267
0.6133333333333333,-1.4867683236137428,1.0145920452472805,-0.08943991104842304,-0.004019872229787258,-0.02934417395038899,-0.36742787056380033
0.62,-1.477760546311888,0.8884457309633849,-0.0922799404833789,-0.0011656595308529947,0.16439389721932096,-0.40768997422448683
0.6266666666666667,-1.4694515357943874,0.7367903988880157,-0.09348813197029153,0.0015153572455989016,0.3407414951877517,-0.4430279484627808
0.6333333333333333,-1.4618385953765984,0.559724493563854,-0.09307078310720386,0.004023846498231245,0.49976573336535246,-0.4734607965062087
0.64,-1.4542256549588095,0.38265858823968946,-0.09265343424411619,0.0065323357508636284,0.6587899715429557,-0.503893644549637
0.6466666666666666,-1.441664735494188,0.3353439542985846,-0.088183459251565,0.010656717841594712,0.8713382731168576,-0.5456673194851204
0.6533333333333333,-1.4281201429114792,0.3114070698317888,-0.08295633128608323,0.014806902722376706,1.0756487173360918,-0.5839050320174225
0.66,-1.4138685355861245,0.3022517116987806,-0.07707710716861987,0.01876547233144993,1.2581394834594892,-0.6146804979946365
0.6666666666666666,-1.3987169273399886,0.31244564741422176,-0.038880507316739504,0.030364962675242566,1.3931246828073547,-0.6205282106999463
0.6733333333333333,-1.3830753928027384,0.34237646666380683,-0.016966949698010936,0.03724291371770863,1.4447066729002047,-0.6270748426976224
0.68,-1.366913608712973,0.3986292749208078,-0.003043527650986075,0.04339276686470145,1.4264314769838164,-0.6209718567922347
0.6866666666666666,-1.35023303037822,0.4949475573351173,0.009008623904828417,0.05131208112454796,1.3434262107856343,-0.5894993351240468
0.6933333333333334,-1.333080655398827,0.6621834278127253,0.019906306420495977,0.060211424465642364,1.1889480274421582,-0.5260611084965835
0.7,-1.3154214435852405,0.9869302479121311,0.03782496549895916,0.07290759015510365,1.0044241919587695,-0.4273818893630891
0.7066666666666667,-1.2951094571168524,0.5538291347874164,0.0546470669838145,0.07272907337249344,0.7747088282557995,-0.37824360227467846
0.7133333333333334,-1.2752578369638974,-0.02113986780773924,0.016229842220863266,0.06713775417283199,0.5778840757890787,-0.266975034627881
0.72,-1.256999713033283,-0.9327009048998554,0.028351170214081702,0.0610739512765023,0.43312474178636196,-0.2137969486963578
0.7266666666666667,-1.2381545027551215,-1.6260771499134283,0.030312250079470127,0.052273646298664725,0.3125522131564866,-0.14023702078654182
0.7333333333333333,-1.2158506020300144,-1.5679268472780834,0.024122009950998613,0.04469526370324579,0.19755847749842734,-0.08630299710148863
0.74,-1.1939242298000645,-1.2714052841195718,0.018467837981014083,0.037952643624568065,0.12311152877217457,-0.05000505800363848
0.7466666666666667,-1.1736449072907325,-0.820055846782659,0.014191663555590435,0.032766780832629225,0.0754139178473353,-0.02858612604775091
0.7533333333333333,-1.1541167851789944,-0.42841495293534676,0.01901816057958863,0.024398892841169705,0.051499264875230516,-0.02385420878907993
0.76,-1.1331065194501482,-0.3234262152895804,0.01241091725287392,0.02066586858477147,0.03210445776449418,-0.015240526256675315
0.7666666666666667,-1.1114355724527887,-0.27976253595726686,0.009000767419770609,0.01716949407564922,0.01960696637610563,-0.008126610285302975
0.7733333333333333,-1.0892583663875133,-0.25983347185849004,0.006759416987952853,0.014232912511360737,0.011893511821192262,-0.003277878729179046
0.78,-1.0665688444726864,-0.2508856548575899,0.0050785873246631434,0.011873246701389258,0.007246107037665502,-0.00009414495094727882
0.7866666666666666,-1.0434175170175959,-0.24762973246572703,0.0037846160939465382,0.010014087405962302,0.004517887900229676,0.0019688616829074976
0.7933333333333333,-1.0198050084733323,-0.24766079731117407,0.0027886260237613377,0.00856282883897291,0.002962104760118968,0.003308962929158603
0.8,-0.9956774528589676,-0.2492578332188992,0.0020468519594192005,0.007463305028461041,0.002152114503646526,0.004167839236802205
0.8066666666666666,-0.9711008383720816,-0.25204580329454657,0.0014957520587616751,0.006622535080441575,0.0017446602751118624,0.004763946969125072
0.8133333333333334,-0.9460512371155375,-0.255240544033176,0.0010862424121781998,0.005971552046059318,0.001557821793071596,0.005224485837359873
0.82,-0.9205928781050493,-0.2591101782150359,0.000792170829120244,0.005467325345921084,0.0015013084903547622,0.005620711653965265
0.8266666666666667,-0.8946133737930668,-0.26290459520629295,0.0006029491479965667,0.005086481045131113,0.001531473012620335,0.00600530433306628
0.8333333333333334,-0.8681790350848974,-0.26699556928430196,0.0004906204344933814,0.0047822304292845326,0.001607913426497061,0.006417810699774568
0.84,-0.8412645272532877,-0.27097033013497024,0.00044330755263505587,0.004525953821957149,0.0017156249426692,0.006884140862236933
0.8466666666666667,-0.8138006358728347,-0.2747020761041429,0.0004662685101454004,0.00430489615782368,0.0018558980402246868,0.007443700716949578
0.8533333333333334,-0.7858642162067814,-0.27848222505916426,0.0005472901470777164,0.004089814843339146,0.002024738928725765,0.008108081281753315
0.86,-0.7574575929972976,-0.2822807662591716,0.0006938306813332215,0.003863995634748904,0.002227887368494286,0.008919046686988695
0.8666666666666667,-0.7285022928412548,-0.28571746747109644,0.0009205798897819063,0.003610748123833366,0.0024827456963823877,0.009928614664057683
0.8733333333333333,-0.6990751508738297,-0.28921853408227827,0.0012452466039870765,0.003309540214482387,0.0028015045936135245,0.011199052078649638
0.88,-0.6690523796340249,-0.29247325921382206,0.0017135086753470362,0.0029582786062283136,0.0032334117650072726,0.012891399553090353
0.8866666666666667,-0.6385391897338827,-0.2953015408253751,0.002390762514518652,0.0025707680920118068,0.0038591595417506834,0.015238480055160809
0.8933333333333333,-0.607421114269427,-0.29823366583636596,0.00352293455881161,0.002171146947136299,0.004851327399719307,0.01891965778263771
0.9,-0.5757464533556782,-0.3008502876214029,0.006059004329869879,0.0020226153573524564,0.007065062846169154,0.0264496046829499
0.9066666666666666,-0.5435515606766262,-0.30329527739735185,0.018828361991280577,0.00480861278837995,0.016816458508608405,0.05232529532851192
0.9133333333333333,-0.5106015278853071,-0.3052948962705914,-0.00000009202166222724808,0.0000006325669577952794,0.0000003900385988138316,-0.000000566693372048983
0.92,-0.47713053996961574,-0.30733887296658324,-0.00000042144636941468845,0.0000004837590195483907,0.00000038818500925638066,-0.0000005899325583359049
0.9266666666666666,-0.44296895429286254,-0.30876039974837644,0.00000008025566547616733,0.00000029931140575398655,0.000000247799722715525,-0.0000007867756857449204
