# n,energy,berry,bcd_x,bcd_y,qmd_x,qmd_y
0.0000015,-3.020343308757834,-0.000000000000002325295632306074,0,0,0,0
0.006688963210702341,-2.9963490517384606,-0.00000017789771778669133,-0.000000000000000000004652215404863751,0.0000000000000000000018105673061375825,-0.0000000000000000000005932807717989605,-0.000000000000000000004766277083575635
0.013377926421404682,-2.972590526332054,-0.0000011722887383782879,0.0000000000000000000027928770599370655,-0.000000000000000000003624687995258241,-0.000000000000000000006505985566614555,-0.0000000000000000000037529495038368436
0.020066889632107024,-2.9490104261735874,-0.000003741211163312967,0.00000000000000000003733759850614275,-0.000000000000000000014466389509813306,-0.00000000000000000002251841885686734,-0.00000000000000000006996103165464335
0.026755852842809364,-2.9256231014673477,-0.000009044587618967154,-0.000000000000000000010387336375546354,0.00000000000000000009740558009348501,0.000000000000000000024617526183224608,-0.000000000000000000043824469964127475
0.033444816053511704,-2.902483570278221,-0.000018064910997833256,-0.000000000000000000017990081815072692,0.00000000000000000004944860000269964,-0.00000000000000000013124004519719947,-0.0000000000000000001780038979730667
0.04013377926421405,-2.879481788950593,-0.00003297686215798092,-0.00000000000000000019083787595896267,-0.0000000000000000008288457802002609,0.000000000000000000085963630019334,-0.0000000000000000001516010694169555
0.046822742474916385,-2.8567293507290428,-0.00005476648846505322,-0.00000000000000000017700425524713763,0.00000000000000000018962371704484279,0.0000000000000000005129477414221464,0.00000000000000000029842299182050097
0.05351170568561873,-2.8341883996851456,-0.00008545102155667266,-0.00000000000000000019783871861760795,0.0000000000000000008881573486791902,-0.00000000000000000017195407686322154,0.00000000000000000011674611340369398
0.06020066889632107,-2.811834289770501,-0.00012672780008005018,0.0000000000000000002941043390055047,-0.0000000000000000018540329069427193,-0.0000000000000000005679613359151093,-0.0000000000000000010086497729968536
0.06688963210702341,-2.7897081204831378,-0.0001807974754520206,0.00000000000000000017476739936374812,-0.0000000000000000005069784642414469,-0.0000000000000000007604521292560627,-0.0000000000000000009419235397825456
0.07357859531772576,-2.7677269481189817,-0.00025123904020218717,-0.0000000000000000011858077854487227,-0.0000000000000000003940028433627605,0.0000000000000000008639050282246812,-0.0000000000000000005894200152142786
0.0802675585284281,-2.7459606034463784,-0.00033907868301340596,-0.0000000000000000022046383835481805,-0.000000000000000000680092325867027,-0.0000000000000000003871201932870348,-0.000000000000000001143373370719144
0.08695652173913043,-2.724341015180527,-0.0004509803222265332,-0.000000000000000007606506704868928,-0.0000000000000000014821927604813643,0.0000000000000000003979795697891708,0.000000000000000004738681685052743
0.09364548494983277,-2.703068223838062,-0.0005896770744935833,-0.000000000000000007070578492481661,0.000000000000000003538242242280802,-0.0000000000000000029101763346604285,0.00000000000000000030109544468483255
0.10033444816053512,-2.68193292778009,-0.0007614101778107267,-0.000000000000000011190299409749676,-0.000000000000000008484198077770907,-0.0000000000000000015215045613726879,-0.000000000000000005137496700326468
0.10702341137123746,-2.6608654149829793,-0.0009697949387844859,0.000000000000000007720219170611595,0.000000000000000008344568289779596,0.0000000000000000008065847146054345,-0.0000000000000000029165790072148296
0.11371237458193979,-2.6401349058374386,-0.001216728925851411,-0.000000000000000002895176794066066,-0.000000000000000009029177843272616,0.000000000000000009826272652116637,0.0000000000000000041460404560482715
0.12040133779264214,-2.619614192983744,-0.0015091764987599898,-0.000000000000000005546362508256867,-0.000000000000000010947731161990671,0.000000000000000005833101730169658,-0.000000000000000006105051038654832
0.12709030100334448,-2.599324872691959,-0.0018644277918478582,-0.000000000000000006401589679496561,-0.00000000000000001993670256626634,-0.000000000000000004651554756820489,-0.000000000000000013411326500123923
0.13377926421404682,-2.579114426586706,-0.0022782728989881613,-0.000000000000000004206070723570608,-0.000000000000000015014867772069835,-0.0000000000000000049338556547991035,0.000000000000000004566050188553596
0.14046822742474915,-2.559090403613605,-0.0027678394760571896,0.000000000000000013697217234289896,-0.00000000000000001241558258574944,0.000000000000000002611013841172482,0.000000000000000012009415981690525
0.14715719063545152,-2.5393503262797297,-0.003339331307124037,0.000000000000000020589037195517138,0.000000000000000055009700787177073,-0.0000000000000000040682727530131605,-0.00000000000000000007787523401699121
0.15384615384615385,-2.519829973451676,-0.004004933867203122,-0.000000000000000015002172057797004,0.00000000000000003869296765176519,-0.000000000000000023010549222659363,-0.000000000000000006753410470725213
0.1605351170568562,-2.5004871032235747,-0.004781382239269578,-0.00000000000000004202155511358025,0.0000000000000000019903459662288492,-0.00000000000000001398858944686142,-0.000000000000000011919423773397681
0.16722408026755853,-2.48135326438919,-0.00568237900190888,-0.00000000000000002500475816676352,-0.0000000000000000007866800443985982,0.000000000000000001382055417718471,-0.000000000000000018700887926259937
0.17391304347826086,-2.4623891860983056,-0.006731601335379776,-0.000000000000000009534356316821279,-0.00000000000000005868191553565852,-0.000000000000000017799650524732133,0.000000000000000002235483047472815
0.1806020066889632,-2.443625536227641,-0.007948106429153279,0.000000000000000004489412932509007,-0.000000000000000027693484533861796,0.000000000000000002386931154049921,0.000000000000000016593458552645353
0.18729096989966554,-2.425154161084617,-0.009340340903681965,0.000000000000000008843799733083516,-0.000000000000000004812545452771964,-0.00000000000000001229871171582916,0.000000000000000003965019929456058
0.1939799331103679,-2.4068778800283557,-0.010928524339326125,-0.00000000000000004436867395346158,-0.00000000000000002402753985487075,-0.000000000000000013391380999719125,-0.00000000000000003944024988783598
0.20066889632107024,-2.388824025129416,-0.012756755707748006,-0.000000000000000035152294340807017,-0.0000000000000001450817512196576,0.000000000000000001817929407691357,-0.0000000000000000486752588716108
0.20735785953177258,-2.3707813125591595,-0.01490633188843104,0.00000000000000002898661566329654,-0.00000000000000006771400866491499,-0.00000000000000008236434546466131,-0.000000000000000035391653669052423
0.2140468227424749,-2.353305987728251,-0.017362457825010617,-0.0000000000000001572530308299958,0.0000000000000000042096653233657795,0.00000000000000011427026093962241,-0.00000000000000003795390822519923
0.22073578595317725,-2.335959338371973,-0.020225264037424102,-0.00000000000000003190984860780049,-0.00000000000000004937190862225384,0.00000000000000010468824331580443,0.000000000000000015211591214044917
0.22742474916387959,-2.3188242765886278,-0.02349980064290487,0.00000000000000005193393806118784,0.000000000000000114423963292556,0.00000000000000004605954508135991,0.000000000000000022108774375734262
0.23411371237458195,-2.3019908505075293,-0.027259200556994594,-0.000536531500668762,0.00000000000000014500953977430992,0.00000000000000000376373363307375,-0.0002454088552985876
0.2408026755852843,-2.2854258350199785,-0.03159245195091175,-0.0009262666043630187,0.000000000000000003796033457988413,0.00000000000000001670882930638478,-0.00043199915449712936
0.24749163879598662,-2.2690709101543383,-0.03659536376637939,-0.000669161596847021,-0.00000000000000009009014259220321,0.00000000000000007620494062973427,-0.00033238426876763187
0.25418060200668896,-2.252921962260014,-0.0423569084280424,-0.0005950192165306533,0.00000000000000013539668371065189,0.00000000000000010785742166192306,-0.0003098912892733359
0.2608695652173913,-2.2372590550882907,-0.049229020717224445,-0.0005672025424986792,-0.00000000000000034026117764259925,0.0000000000000000035527328933782646,-0.00030592322709307475
0.26755852842809363,-2.221887051864146,-0.05733897459183859,-0.0005526257656788876,0.00000000000000013259011554877674,0.00000000000000005189510222745018,-0.0003069259082210649
0.27424749163879597,-2.206946720534446,-0.06679016684550206,-0.0005464532132187368,0.00000000000000021921536548716484,0.00000000000000004227477687785905,-0.00031084934676718347
0.2809364548494983,-2.192462881594393,-0.07766041485314368,-0.0005453389577356525,-0.00000000000000039129031165561634,-0.00000000000000008287484383453407,-0.00031632683770778847
0.28762541806020064,-2.178510964600277,-0.09133411662334119,-0.0005479687934315073,0.00000000000000020921487718004463,-0.0000000000000000837877577877968,-0.0003226370470808462
0.29431438127090304,-2.1674667095429863,-0.1298116490543858,-0.00043652939413329697,0.0000000000000002810391305695043,-0.000000000000000041073823530106585,-0.0004121078285943625
0.3010033444816054,-2.1576993322543787,-0.1791815962974503,-0.0002749973522173307,0.00000000000000012069714597633675,0.000000000000000020798511466258338,-0.0005380979469854939
0.3076923076923077,-2.149889227325607,-0.24128015614412227,-0.00010572807006072107,0.00000000000000016038148464059074,-0.00000000000000010628636867409367,-0.0006698299858911507
0.31438127090301005,-2.142998728976621,-0.3093591386146537,0.00006717648390613013,0.0000000000000002940463682573311,-0.0000000000000003221510741997228,-0.0008042598138189778
0.3210702341137124,-2.1361082306276344,-0.37743812108518515,0.0002400810378729813,0.0000000000000004277112518740715,-0.0000000000000005380157797253519,-0.0009386896417468048
0.3277591973244147,-2.1279483719205974,-0.4386090945992194,0.00046460954415803845,-0.0000000000000000005336210921002893,-0.0000000000000002511676613146813,-0.0011132491139744759
0.33444816053511706,-2.119518781568403,-0.4983121566499888,0.0007001078381003133,-0.0000000000000005481810278712363,0.00000000000000014250398926473156,-0.0012963359006939845
0.3411371237458194,-2.1102586711288036,-0.5526241225177195,0.000972012150907729,-0.0000000000000006727561704822846,0.0000000000000002000284093341742,-0.0015078474095048197
0.34782608695652173,-2.100135966240018,-0.6013367901709445,0.001281728468826496,-0.0000000000000003579201631279018,-0.00000000000000009157627601416725,-0.0017488813920853732
0.35451505016722407,-2.0894005369609885,-0.6471793377896882,0.0016261424721446802,-0.00000000000000032532993189071176,-0.00000000000000012238370215251328,-0.0020170342039934628
0.3612040133779264,-2.0781571225611946,-0.6906423844524748,0.001999322929334306,-0.0000000000000005267383090800315,0.00000000000000006302537838680899,-0.002307670145364452
0.36789297658862874,-2.066318831286129,-0.7304411549380043,0.0024152607822466674,-0.0000000000000002953442463480399,-0.00000000000000023514487975944167,-0.00263104709119184
0.3745819397993311,-2.0542366860511905,-0.7687922814203584,0.0028496458474005825,0.000000000000000048787816774129,-0.0000000000000004896826761649195,-0.0029685474837772446
0.38127090301003347,-2.041655153791943,-0.8043626461762432,0.0033249164468346485,0.00000000000000040531388621375624,0.00000000000000016214597623844744,-0.0033373430295176834
0.3879598662207358,-2.0288128760248654,-0.8382628534709005,0.0038238771680704072,0.0000000000000005947093433479011,0.000000000000000306982058936301,-0.003724254427877938
0.39464882943143814,-2.0157555335645942,-0.8707925190747003,0.004342243732641914,0.0000000000000006017385286200222,0.00000000000000005846312593769377,-0.004125944728898263
0.4013377926421405,-2.0022979252860678,-0.9008382705333976,0.004895450974698767,-0.00000000000000015486568148815718,-0.000000000000000685655529677852,-0.00455358561888054
0.4080267558528428,-1.988632229664071,-0.929513465362016,0.005466933653096962,0.00000000000000017462835907190124,-0.000000000000000653932800158958,-0.004994316909821278
0.41471571906354515,-1.9747698481509588,-0.9569698021340409,0.006054383742522847,0.0000000000000008903640833413683,-0.00000000000000014124747760090033,-0.005446299057405239
0.4214046822742475,-1.9606199358826164,-0.9828544141129016,0.006661592456194024,0.000000000000000414486728373429,0.00000000000000038238524394652,-0.0059116505048641054
0.4280936454849498,-1.9462727698998863,-1.0070333954707658,0.007279226847513025,-0.0000000000000004019642383206761,0.0000000000000007350298407257961,-0.006382537555347516
0.43478260869565216,-1.931778733437757,-1.0296777196201243,0.007900959222919763,-0.0000000000000008553459161790507,0.00000000000000025480914717124177,-0.0068540855309389154
0.4414715719063545,-1.917146077148489,-1.0506996929031838,0.008523797828304888,-0.0000000000000006915530241628318,-0.0000000000000010727646897680712,-0.007323531464632425
0.44816053511705684,-1.9023992526147089,-1.069920043544709,0.009137775572818474,-0.00000000000000016423563579303416,-0.0000000000000005543449443640634,-0.007780907994350861
0.45484949832775917,-1.887433067341103,-1.0878072170448791,0.009740637208146623,-0.00000000000000009987211632783878,-0.00000000000000035536283194317095,-0.008223711606742143
0.46153846153846156,-1.872351614671272,-1.1040496623589628,0.010325788493725894,0.00000000000000031664230046408966,-0.00000000000000009458712629069018,-0.008646247693056953
0.4682274247491639,-1.8572144313930616,-1.1184219819306849,0.01088639251937808,0.0000000000000013135209910294328,0.000000000000000321722033573016,-0.009042019961954622
0.47491638795986624,-1.842070557389611,-1.130653717414143,0.011405832600573491,0.000000000000002057765252201334,0.0000000000000004465137470591219,-0.009394076424357616
0.4816053511705686,-1.8267060043337482,-1.1410109094128247,0.01188321592936512,0.0000000000000009782446858388195,0.000000000000000004648597758681634,-0.00969614213888779
0.4882943143812709,-1.8113521246413846,-1.1493754456849592,0.012313617856333066,0.0000000000000004744299510955249,-0.000000000000000018091001854436153,-0.00994311803061421
0.49498327759197325,-1.7960057501795879,-1.1555654602420777,0.012695677289024977,0.00000000000000006691808812820944,0.00000000000000026589441454188063,-0.010128600136854673
0.5016722408026756,-1.780581345615976,-1.1594037018243393,0.013030642899202707,-0.0000000000000017918809159727247,0.00000000000000032068519778981647,-0.010246090376841174
0.5083612040133779,-1.7650460046145608,-1.1599681382154674,0.013318253902875542,-0.0000000000000011131438742095265,-0.0000000000000007245400998838123,-0.010257014052842666
0.5150501672240803,-1.749619917604302,-1.1579297645915156,0.01362509643283673,0.00000000000000014148887798759597,0.0000000000000004692824668939954,-0.010188518094474219
0.5217391304347826,-1.7341838069318554,-1.1528616997749614,0.014115758971857273,0.0000000000000004910712486457925,0.000000000000001529635688123035,-0.01008239584777991
0.5284280936454849,-1.7187165330363405,-1.1444794594368912,0.015533545533418859,-0.00000000000000040196663532208236,0.000000000000001153903258490197,-0.010201150155701742
0.5351170568561873,-1.7033498769985134,-1.132536451079503,0.019957196485732735,-0.0000000000000011539842847298241,-0.0000000000000008237257708381336,-0.011304130874816465
0.5418060200668896,-1.688063864065163,-1.1158994970484009,0.0051347534538940115,-0.000000000000004351332261669304,0.0000000000000012190880088986072,-0.0036894095263725864
0.5484949832775919,-1.6727721773078292,-1.0945846805067303,-0.0011155126488860514,-0.0000000000000025548713702833543,0.000000000000000053138155321153014,-0.0005279933145514266
0.5551839464882943,-1.657557112153592,-1.068495543800362,-0.0011376166522198321,0.0000000000000005267267867096092,-0.0000000000000018631047561466336,-0.0005291218632973766
0.5618729096989966,-1.64250625507482,-1.0377359183878871,-0.001159588897828501,0.00000000000000005202422958500294,-0.0000000000000010877956097778765,-0.0005298963288197641
0.568561872909699,-1.6274403886641071,-0.9975777675682426,-0.0011817137531993725,0.0000000000000006312197284266385,-0.0000000000000013391649620055492,-0.0005301903382140518
0.5752508361204013,-1.6127464066042847,-0.9503026227582118,-0.001203361008791488,-0.00000000000000016872665402163172,-0.00000000000000018291064726284113,-0.000530118661296201
0.5819397993311036,-1.5982946793307664,-0.8956789442039664,-0.0012247201302737526,-0.00000000000000008763904458879004,0.0000000000000008239346267756694,-0.0005297344577783972
0.5886287625418061,-1.5840134934622778,-0.8332505068707081,-0.0012458987142596255,0.0000000000000023401246799051965,0.0000000000000006909857077505706,-0.0005290581467876617
0.5953177257525084,-1.5701109526434054,-0.7552210283833323,-0.001266578810899405,0.0000000000000004593102226786781,0.000000000000001178903039365244,-0.0005279280755069616
0.6020066889632107,-1.5565245020086522,-0.6649223766247021,-0.0012868115601148795,-0.00000000000000155057924097457,0.0000000000000008828747701955915,-0.0005265554573351552
0.6086956521739131,-1.5432547095912756,-0.5628242233214317,-0.0013065909112805307,-0.0000000000000033691788153144726,0.00000000000000018927636408612528,-0.0005249725993740169
0.6153846153846154,-1.5307252784937473,-0.4360369469839722,-0.001325279908700451,-0.0000000000000029329221749967057,0.000000000000000904553610804312,-0.0005230888301071184
0.6220735785953178,-1.5188116874614126,-0.28431635862439353,-0.0013430467140690603,-0.0000000000000021221431184436942,0.000000000000000946356834655835,-0.0005210846530467465
0.6287625418060201,-1.5074282409154873,-0.11113198665682028,-0.0013600196525572169,-0.0000000000000009889573117852347,0.0000000000000004084015138105359,-0.0005189768232176794
0.6354515050167224,-1.4983585785477997,0.13681092217153956,-0.0013735268391068217,-0.0000000000000001770317752632504,0.0000000000000004374053941870281,-0.0005170570172632697
0.6421404682274248,-1.4898356445044785,0.40241866334442533,-0.0013862150967485984,0.0000000000000005589825804194703,0.0000000000000006003771082895787,-0.0005151816398164533
0.6488294314381271,-1.4802847865629982,0.6610563584175085,-0.00140040853578465,0.000000000000001885825672753707,0.0000000000000002882510122311341,-0.0005128943648060141
0.6555183946488294,-1.4697068955472066,0.9127300478022394,-0.0014161058517881773,0.000000000000003802985475188284,-0.000000000000000498561162672414,-0.0005101955491923977
0.6622073578595318,-1.4557858104607948,1.0561666309931108,-0.0014366941876517007,0.0000000000000022924022023353647,0.00000000000000021760489816601883,-0.0005062881353195705
0.6688963210702341,-1.4395892724443191,1.1339469602521401,-0.001460555571503018,-0.000000000000001875311571442383,0.0000000000000007398387400063869,-0.0005013529528853223
0.6755852842809364,-1.4226384086334345,1.2024710789441484,-0.001485389756608768,-0.0000000000000051405691094277185,-0.00000000000000006118464676733877,-0.000495698635831546
0.6822742474916388,-1.405121308464944,1.2638538650900555,-0.0015108705423419785,-0.0000000000000016355730583239588,-0.0000000000000000811591557378539,-0.0004893207789153796
0.6889632107023411,-1.387116232005815,1.3205598165915435,-0.0015368278581668355,-0.0000000000000003719289458459223,-0.0000000000000015234604496521047,-0.000482195051534073
0.6956521739130435,-1.3684632545449322,1.3721026086928059,-0.0015634026807304039,-0.0000000000000024247628433285665,-0.00000000000000018723111030317984,-0.00047416524505448297
0.7023411371237458,-1.3495078270632026,1.4204357882372005,-0.0015900511254898445,0.0000000000000022116083732423413,0.0000000000000015001554337840472,-0.0004653810943873411
0.7090301003344481,-1.3298516894371946,1.4666209288321745,-0.0016172510922391335,-0.000000000000002529904815073575,0.0000000000000018776580609450938,-0.0004556213010363169
0.7157190635451505,-1.3098872174449485,1.509877313421953,-0.0016443593924967271,-0.0000000000000032146211588678185,0.000000000000000931811999678329,-0.0004450309306693973
