# n,energy,berry,bcd_x,bcd_y,qmd_x,qmd_y
0.00000016666666666666665,-3.054883634600324,-0.0000000061222616505036695,0,0,0,0
0.006688963210702341,-3.0069001445775863,-0.00024969609702254765,-0.0000000000000000003092561780675599,0.00000000000000000009319910125311099,0.000000000000000000051617133478424036,0.00000000000000000009620238527836438
0.013377926421404682,-2.9595999929536725,-0.0004918870963288305,0.0000000000000000007752394210642364,-0.00000000000000000037054838923560916,0.00000000000000000021307546710160044,-0.0000000000000000003076465039846185
0.020066889632107024,-2.93365700640044,-0.0005267799909869526,0.000000000000000001130208648167255,-0.0000000000000000016482774660141228,0.0000000000000000015046756323502565,-0.000000000000000000649406247134046
0.026755852842809364,-2.9101103323565667,-0.0005281266837065439,-0.0000000000000000004512880699424627,-0.000000000000000002576524472960213,-0.00000000000000000011245256132014193,-0.00000000000000000025454997263639084
0.033444816053511704,-2.886738891060312,-0.0005161835103892316,0.0000000000000000012243006263876271,-0.000000000000000003127787760714703,-0.000000000000000000558396587192345,-0.0000000000000000009293960690910145
0.04013377926421405,-2.863535434399605,-0.0004897028122973304,0.0000000000000000022664354665738196,-0.000000000000000003883689661807802,-0.00000000000000000010182287110001258,0.00000000000000000007833814237960787
0.046822742474916385,-2.8404929619540877,-0.00044782661006128856,0.0000000000000000014174254816974711,-0.0000000000000000021200865126303526,0.000000000000000005996596670530583,-0.0000000000000000014280764970771918
0.05351170568561873,-2.817652973331765,-0.0003892626704116145,-0.0000000000000000009825652849477592,-0.0000000000000000043679490064747735,0.000000000000000005160440707617843,-0.00000000000000000038738000908456773
0.06020066889632107,-2.7949410049149717,-0.0003118492010170675,0.0000000000000000006111318539774838,-0.0000000000000000023664772958939538,-0.000000000000000003875845983194967,-0.0000000000000000021891452269316934
0.06688963210702341,-2.7724399476180435,-0.00021421508864266368,0.0000000000000000008888147272530475,-0.000000000000000002866850039503826,0.0000000000000000035370130102684895,-0.000000000000000004197436959195699
0.07357859531772576,-2.750089529711266,-0.00009615665994359157,-0.0000000000000000018315618324671436,-0.0000000000000000063053556343890316,-0.0000000000000000034997541338496326,-0.000000000000000005145701861954028
0.0802675585284281,-2.727920204296096,0.00004404031262917513,-0.0000214151397035321,0.000013953354135232437,0.000019117811734385275,-0.000028145521228891292
0.08695652173913043,-2.7059121541314526,0.00020715058350663287,-0.00003585670583006378,0.00002662325245290095,0.000041071198171768173,-0.00005031474811748928
0.09364548494983277,-2.684064630975412,0.00039444835498420895,-0.000017182929336321645,0.000020381579271057246,0.000039666998970825524,-0.00003172453101452175
0.10033444816053512,-2.662362758373741,0.0006073911844504377,-0.000007907661039389304,0.000019859766051152495,0.00004365503425619149,-0.00002540505460400288
0.10702341137123746,-2.6408668777817743,0.0008475263590680192,-0.0000000024489708582160533,0.00002076682273692234,0.000048622106428657895,-0.00002175296714055244
0.11371237458193979,-2.6194933360939663,0.0011150640640318705,0.000060121120180004656,-0.00000644952187782307,0.0000808660037114078,-0.00009550771001622028
0.12040133779264214,-2.5982982187892185,0.0014142887126066162,0.000048665873684979014,0.000009789482135046973,0.00006911922471372105,-0.00006987580883349682
0.12709030100334448,-2.577277572588355,0.0017404484357016786,0.0000513523366761649,0.000019164964550743857,0.00006480295029511947,-0.00006144737596961744
0.13377926421404682,-2.5564047935803,0.002099155941681955,0.00006046858532652141,0.000026600262938932156,0.00006120065917766467,-0.000059408279812001786
0.14046822742474915,-2.5357633835405418,0.0024853388094481766,0.00007261020704411738,0.000034248784587080175,0.00005445977398790007,-0.000058872595450209696
0.14715719063545152,-2.515222906061264,0.0029016589897145964,0.00008756411968761552,0.00004263060621291624,0.00004179174341723264,-0.000058981868354614725
0.15384615384615385,-2.494874521812556,0.0033446313382581136,0.00010540335063942363,0.000051970041017505614,0.00001981504327317782,-0.00005948945322930813
0.1605351170568562,-2.474689705495735,0.0038100227109877653,0.00012643552088732076,0.00006248336294657516,-0.000016198347460632467,-0.00006041434183976555
0.16722408026755853,-2.454667053977067,0.004282146741312477,0.0001510626544827453,0.00007435971263954981,-0.00007285676081705483,-0.00006215456070075284
0.17391304347826086,-2.434804589090363,0.00476044670048233,0.00017974086711969444,0.00008781066860167672,-0.000159414250260572,-0.00006553353360020093
0.1806020066889632,-2.4151392664973446,0.005228833655179572,0.0002129082093518265,0.00010299666715243146,-0.0002885405139674221,-0.00007206677676370961
0.18729096989966554,-2.3956264436886983,0.005647995169809375,0.00025116498347069216,0.00012020481208840453,-0.00047846952301183656,-0.00008430525944081532
0.1939799331103679,-2.3762834454133817,0.005982703380584665,0.00029496580788445937,0.00013966938146787842,-0.000753897869294931,-0.00010632396202755119
0.20066889632107024,-2.3571409613523864,0.006162530734767505,0.0003446755137430664,0.00016163066642574877,-0.0011481092271454355,-0.00014437180808154899
0.20735785953177258,-2.3381746241757764,0.0060876264902913774,0.00040067055839931344,0.00018641049289158936,-0.0017074969881104409,-0.000207996132049503
0.2140468227424749,-2.319459518197121,0.0055673708436204195,0.0004630546100752248,0.0002143953877758072,-0.0025070170426867134,-0.00031395015454923963
0.22073578595317725,-2.300926287071511,0.0042649034501656925,0.0005314513552840529,0.000245950721540256,-0.0036381074263672443,-0.0004851805740230395
0.22742474916387959,-2.2826285306778535,0.0016147409521764093,0.0006045749441241375,0.0002812868471170025,-0.005214241094529454,-0.0007532273610592662
0.23411371237458195,-2.264616398805189,-0.0036673804683984837,0.0006802430306621732,0.0003205421484812224,-0.007381874068717069,-0.0011617108603977932
0.2408026755852843,-2.246989027035347,-0.014323229464139184,0.0007550044117628124,0.00036360500573513,-0.010306222555625721,-0.0017650704745977588
0.24749163879598662,-2.2300227772363135,-0.03952620064383059,0.0008236810838436716,0.00040955517827261155,-0.014109060155924683,-0.0026140775067368983
0.25418060200668896,-2.2135962933247195,-0.08449644406318321,0.0008824690974911835,0.00045819180421296255,-0.018950814594031373,-0.0037699335109423783
0.2608695652173913,-2.1970970950817894,-0.14445676766963406,0.0009282955977136916,0.0005109958750686068,-0.025235891098864312,-0.005361036206662401
0.26755852842809363,-2.178251530450205,-0.17587885959116395,0.0009510021063033119,0.0005757631845673569,-0.03483302550788897,-0.007954803335010556
0.27424749163879597,-2.158221986215926,-0.19500793551631007,0.0009221984361673973,0.0006470706759592023,-0.048503353906180484,-0.011902691194450971
0.2809364548494983,-2.1376297159276563,-0.19815323677788985,0.0008142975383634303,0.0007174117610453232,-0.06684598179191631,-0.017541512822481536
0.28762541806020064,-2.119302665845918,-0.1437416309212914,0.00064172579890225,0.0007712581878524632,-0.08675106899462111,-0.0239747295688576
0.29431438127090304,-2.1033686723303067,-0.06050989219234307,0.00041458530985601853,0.0008004525821475875,-0.10696688825275974,-0.03083711989169626
0.3010033444816054,-2.087866243844373,0.033810046052096504,0.00014291790836034032,0.0008064429331523615,-0.12781655346473214,-0.03815211412515101
0.3076923076923077,-2.071418801951515,0.11905202836889006,-0.00018289873628419095,0.0007822934621052197,-0.14992709941173046,-0.046105310320064756
0.31438127090301005,-2.053381276131305,0.18642892657622778,0.0008232111742106586,-0.00014730515328153755,-0.18136977788260614,-0.05565088477249348
0.3210702341137124,-2.0344054705622656,0.24472647482229096,0.002796633743827888,-0.0018057667186944524,-0.22504952331076097,-0.06741092746119222
0.3277591973244147,-2.015178051285779,0.2874132519172355,0.0008987950960677755,-0.0012006029507036112,-0.25942743714090216,-0.07919931853715824
0.33444816053511706,-1.9972823834239768,0.2946867131711375,0.0002043979193102356,-0.0011053166483915528,-0.289780982746384,-0.08859048392733339
0.3411371237458194,-1.9812957677369132,0.2757196750196827,-0.00018171037515616055,-0.0010020189635411045,-0.3111248490481035,-0.09449495174599444
0.34782608695652173,-1.9655354733207575,0.26885453681013527,-0.0003421859141980218,-0.0008206468556436469,-0.3207896584603079,-0.09540607946600166
0.35451505016722407,-1.9499767728595174,0.2683247636515649,-0.00030899562266475207,-0.0005644025119699474,-0.3182667215163577,-0.09081105339190138
0.3612040133779264,-1.9346041401648242,0.27289007890632017,-0.00007906791786040521,-0.00021931835645592446,-0.3016409530746359,-0.07952233368396049
0.36789297658862874,-1.9194042624566268,0.28174347307010633,0.00034509483343268495,0.00022142155899907752,-0.26897327248831326,-0.0603089703585532
0.3745819397993311,-1.9044578133659427,0.29584413171473567,0.000994016712649277,0.0007531023688242248,-0.20735646893628545,-0.025864667216885052
0.38127090301003347,-1.8896915337177174,0.3129016867035513,-0.0004755739305222493,0.001597181853260331,-0.0929378187819405,0.04182795358737035
0.3879598662207358,-1.8749141993190783,0.32244548505563936,-0.0014663407292118149,0.0020315786411303992,0.006385370220249691,0.10275271029211297
0.39464882943143814,-1.860049112592904,0.31870337794483256,-0.0005507714343639516,0.0016610296873568518,0.05343188876661904,0.13503542773650126
0.4013377926421405,-1.8457088617229076,0.3183955301371748,0.0001287182822765332,0.0015240850203709758,0.11042372929304511,0.172826262151614
0.4080267558528428,-1.8317269511885874,0.321049801028999,0.0007711070674220936,0.0014772175193242096,0.173321470692191,0.21359855832825964
0.41471571906354515,-1.818061135492812,0.32659504617560936,0.0013721664805800102,0.0015000718980260413,0.24093845626319238,0.256908422499333
0.4214046822742475,-1.804867820445619,0.337020902621164,0.0018941479825225508,0.0016075690449791388,0.3146236567132307,0.30382564657435085
0.4280936454849498,-1.792135429873932,0.3539719953245793,0.002249854787243274,0.001728708022777894,0.391799140675233,0.3564554389526542
0.43478260869565216,-1.7796934480242783,0.3758538395946492,0.002456668411305322,0.001804102055643628,0.4623219073543355,0.4128087882584206
0.4414715719063545,-1.7679730263984483,0.4135653123154432,0.002100827201583434,0.0015285446373040784,0.47766112947991507,0.47895667323107705
0.44816053511705684,-1.7566594239449675,0.4745650559495667,0.0018351953378889568,0.00034880559839578257,-0.3389402366939665,4.414975659876977
0.45484949832775917,-1.745886538226251,0.5665180059772223,0.0016894636813246612,-0.002032710954303101,-2.2613011859913237,13.494567536595035
0.46153846153846156,-1.7357676670784057,0.6682879467909557,0.0016022970508232167,-0.0031559196617700095,-2.427284974538089,12.216446277135601
0.4682274247491639,-1.726118570192108,0.7771093659700811,0.0015571972841143503,-0.003375294318557965,-1.3316748775055094,3.4984494299054756
0.47491638795986624,-1.7180075352214144,0.9053506432512013,0.0008848264740909428,-0.0036481763891362358,-0.8307033781727943,-0.6742019846423539
0.4816053511705686,-1.7113194047538611,1.0515577795548612,-0.00036785048821854705,-0.0039705596789185085,-0.8798488343568116,-0.6418260079794504
0.4882943143812709,-1.7046312742863081,1.1977649158585209,-0.0016205274505280368,-0.004292942968700782,-0.9289942905408288,-0.6094500313165468
0.49498327759197325,-1.6960408095941046,1.3055965469479514,-0.002738839767858174,-0.004456718215788123,-0.9248787256929101,-0.5772584181779732
0.5016722408026756,-1.6858544416998418,1.3812342602397307,-0.003744431110930704,-0.004487434255965698,-0.8760815097931295,-0.5452214709939981
0.5083612040133779,-1.6748417488906124,1.441491507937285,-0.004875018449219149,-0.004351893061585892,-0.8290104804670121,-0.5196956823713373
0.5150501672240803,-1.663254965982946,1.4910631610859224,-0.006092446885843201,-0.0041008444797072776,-0.7831387210673443,-0.49869352796531785
0.5217391304347826,-1.6509682270402897,1.5277740788528007,-0.007556017438417616,-0.003615683045521539,-0.7429848706039459,-0.48317759872289373
0.5284280936454849,-1.6384250148622506,1.5595879664104315,-0.009144699327544411,-0.0030162077263010787,-0.7046552687529938,-0.46926676151135627
0.5351170568561873,-1.625456622380402,1.5830803208630528,-0.010979223394278368,-0.0021958224906879374,-0.66905179222598,-0.4575709672485179
0.5418060200668896,-1.6121982413118199,1.5992216497254783,-0.013071179898619814,-0.001116022126085383,-0.6342414305559584,-0.44643807428038584
0.5484949832775919,-1.5987563207139464,1.6104505549271486,-0.015330341655463885,0.00016098781698569564,-0.5993386345949516,-0.43518420404242614
0.5551839464882943,-1.585073460314504,1.6147595964053831,-0.017816745517556933,0.0017567597043679833,-0.5632366363792055,-0.4229061174105911
0.5618729096989966,-1.571790875167859,1.628048151134902,-0.020505754599558584,0.0038214476548120014,-0.4785430560590555,-0.3764641349657971
0.568561872909699,-1.5586313008137394,1.6411626731632496,-0.023079021607597408,0.006312572725646971,-0.3866790197312447,-0.3252721742734554
0.5752508361204013,-1.5455114517203399,1.6475230046592662,-0.025208485053126565,0.009586036715844928,-0.31022278942763293,-0.28567272429425855
0.5819397993311036,-1.532407799603962,1.6478190332969396,-0.027129749514838448,0.013057179018802606,-0.23930561279931428,-0.24929895612331002
0.5886287625418061,-1.5193850502012707,1.643615531085815,-0.028865774803060722,0.01655598874421949,-0.17114839263443876,-0.21406570275201697
0.5953177257525084,-1.5066009775203741,1.6312607053973283,-0.03022508691740276,0.019945787195013855,-0.10618605184888591,-0.179223281847969
0.6020066889632107,-1.4940531387079834,1.6102888248482312,-0.031203458267889072,0.023093873477028216,-0.0442446484062921,-0.14480054014252064
0.6086956521739131,-1.481665438204208,1.583827957565875,-0.03197999255686971,0.02609370414964772,0.015700580912033857,-0.11082179102365482
0.6153846153846154,-1.4698330264157387,1.540937237205212,-0.03247335564712027,0.02869469301882589,0.06910568455473365,-0.07956117630521256
0.6220735785953178,-1.4584084624745297,1.4860462270562351,-0.03349919035414609,0.03144848555456991,0.11845732118732975,-0.05102154166669175
0.6287625418060201,-1.4475896117429943,1.4133330459836928,-0.03531582264469002,0.03442921369864699,0.161788971372811,-0.02652295711274468
0.6354515050167224,-1.4382233456590512,1.2980699802454152,-0.030402084529156922,0.03323321273553474,0.19598380929562248,-0.0016144585276204396
0.6421404682274248,-1.4299851781470656,1.149762049130151,-0.020261441904875117,0.028793502602645196,0.22308286461957166,0.023612385314671927
0.6488294314381271,-1.4216028447376334,1.0047266605412009,-0.011508933826393652,0.024943724853169785,0.24874862163533204,0.0466003451465992
0.6555183946488294,-1.4123846085471912,0.8786661297180145,-0.01080510818809752,0.02451449335380187,0.2661038276605069,0.05660680655364026
0.6622073578595318,-1.4031663723567487,0.7526055988948281,-0.010101282549801388,0.024085261854433954,0.28345903368568176,0.06661326796068132
0.6688963210702341,-1.388895114710587,0.8230233625104809,-0.008155602222735368,0.02287896130505017,0.3035593052796883,0.07918375876288108
0.6755852842809364,-1.3738813926855822,0.9521555610433048,-0.005538905935777093,0.02136668549659208,0.3195431214833347,0.08985419852472393
0.6822742474916388,-1.357940383981427,1.1048056097300294,-0.0020733800980177195,0.01954415662808678,0.33006114115364993,0.09793105882096441
0.6889632107023411,-1.3406446964821246,1.15728577150792,0.0025271727517628666,0.017456105654983695,0.3331205623878033,0.10242829260233516
0.6956521739130435,-1.3214049004974395,0.7805070052062733,0.008664227213485276,0.015294170858011585,0.3255648459902893,0.10197976169689132
0.7023411371237458,-1.3022405158284687,0.33851213486587267,0.015834896115756586,0.013517950932237297,0.3075862782882327,0.09650791054325823
0.7090301003344481,-1.2834699795367184,-0.20336959186192663,0.024588872872269716,0.011936409699569902,0.28195401682050814,0.08687529668792185
0.7157190635451505,-1.2662207992547392,-1.0111721317932783,0.01733699871447924,0.020883097905931798,0.23526559948252107,0.08026331722909746
0.7224080267558528,-1.2481788567022511,-1.624477295275117,0.01985531532424776,0.020159515010580227,0.21823109692883055,0.07464078731531525
0.7290969899665551,-1.2276995390454786,-1.9686519680251187,0.023909332432261458,0.017476434025144986,0.19618401207340874,0.065210479338985
0.7357859531772575,-1.2043711865835105,-1.9114376135884852,0.02707000627044523,0.014476762572211057,0.1615865788844899,0.051400962600298555
0.7424749163879598,-1.1812972902155214,-1.716325869422596,0.027984304380430106,0.011803031209451899,0.1234800513971676,0.03749285308896067
0.7491638795986622,-1.159432412977438,-1.4455340915737398,0.027141538679747796,0.009650968588401275,0.09008359851657795,0.02628460916337472
0.7558528428093646,-1.1393524299453057,-1.0757977072351923,0.02527027846107209,0.008028257834941575,0.06426485958059949,0.018318373176433866
0.7625418060200669,-1.1202237412071219,-0.7013295159059609,0.02288403262492165,0.006782903305447171,0.04479696751404237,0.012816737739481724
0.7692307692307693,-1.0992898949847767,-0.5571243869776645,0.019982259049557954,0.005717821123091906,0.02910468302305703,0.008817106854020432
0.7759197324414716,-1.0774871947712437,-0.48588047693814485,0.016987035546907815,0.004866153145047421,0.01779168547438622,0.00626777975407277
0.782608695652174,-1.0550830344123021,-0.4475226737099802,0.01416186311758072,0.004196786480841245,0.010127790867117011,0.004781133378920447
0.7892976588628763,-1.0321138699829682,-0.42637170016670556,0.011641746388726708,0.0036697205485798916,0.00515945602667394,0.003985930431472485
0.7959866220735786,-1.0086140432234125,-0.4146789286174641,0.00948392000238774,0.0032516626606779284,0.002066025345808402,0.00360896160717841
0.802675585284281,-0.9846111232676895,-0.40891000304644826,0.007699150474513019,0.002917470880982689,0.00022797508812629025,0.0034712998413877643
0.8093645484949833,-0.9600599908505825,-0.40734129378533185,0.006294430587468751,0.0026516800346838352,-0.0007651317531647773,0.003469115974015186
0.8160535117056856,-0.9350395486657787,-0.4079158702838222,0.005178448889980181,0.0024293543043968583,-0.0013312728790379803,0.0035274617986442197
0.822742474916388,-0.9095387931254036,-0.40983884244792496,0.004304863031430533,0.0022377934258940597,-0.00164910651939063,0.0036232994135706217
0.8294314381270903,-0.8835867647821256,-0.4129459709266596,0.003643807122477818,0.002068260726521425,-0.001827491606505455,0.0037514154585494047
0.8361204013377926,-0.857069418335277,-0.41661222825632366,0.0031606194552142165,0.0019097248358606613,-0.0019428124937104926,0.003916354350044
0.842809364548495,-0.8301092687338738,-0.42076186662442994,0.0028035671432302543,0.0017517072770274677,-0.0020448602117580823,0.004121332625288582
0.8494983277591973,-0.8026641303496275,-0.42511896462632737,0.002557040431177761,0.0015845438132402485,-0.002159496475809638,0.004381695071153163
0.8561872909698997,-0.774649743356265,-0.42949067358792514,0.0024017198579164545,0.001396085204349098,-0.0023061737164520005,0.0047152891568522995
0.862876254180602,-0.7461982425925532,-0.4339950248428816,0.0023153113837437855,0.001176632947853546,-0.0024940750987970397,0.005131576973424109
0.8695652173913043,-0.717213549379543,-0.4383879470067851,0.0023069157985963437,0.0009028035163546086,-0.002750407599636924,0.005684520228940445
0.8762541806020067,-0.6877186565323292,-0.4427065489355058,0.0023659745890269725,0.0005664612378123498,-0.003083038501490179,0.006393928491889993
