# n,energy,berry,bcd_x,bcd_y,qmd_x,qmd_y
0.00000016666666666666665,-3.100910203778586,0.000000019303886574480792,0,0,0,0
0.006688963210702341,-3.0530662375706514,0.00079558620666109,-0.0000000000000000008080086251058076,0.000000000000000001283418573260904,-0.0000000000000000005277767474805538,-0.00000000000000000036441128878207714
0.013377926421404682,-3.005970222355417,0.001642399514834681,0.0000000000000000001679583935292938,0.0000000000000000025620256757775377,0.000000000000000003008995223207445,-0.00000000000000000012479290200718562
0.020066889632107024,-2.9596632647462306,0.0025615516249775233,-0.0000000000000000057964099881779725,0.000000000000000009584632165341254,0.000000000000000007291492012889555,-0.000000000000000006813094185579686
0.026755852842809364,-2.9258110258263184,0.0030233878423456414,-0.0000000000000000007017583165594328,0.000000000000000012745360185008805,0.000000000000000003808863258614883,0.000000000000000003691697057811624
0.033444816053511704,-2.9023189342235645,0.0030477674462019533,-0.0000000000000000005679545560980597,-0.0000000000000000006565333943240677,0.0000000000000000049219528941381594,-0.000000000000000007489858544560407
0.04013377926421405,-2.8792623583216588,0.003087297286391763,0.0000000000000000008195987365403313,0.0000000000000000220333278365471,0.000000000000000004644098030212983,0.0000000000000000016535878159257187
0.046822742474916385,-2.856447905815259,0.003162689197054626,0.000000000000000009249237539466108,0.000000000000000005728811405833088,-0.000000000000000013903418248737753,-0.000000000000000004118740920501201
0.05351170568561873,-2.8338185738864468,0.0032724130936570154,0.000000000000000001468439277924852,0.000000000000000035887979908785674,0.0000000000000000026920133371353524,0.0000000000000000014688783909818529
0.06020066889632107,-2.811393900991603,0.0034217617808314253,0.000000000000000008275627161044028,0.0000000000000000066174855963138096,0.000000000000000030825094875417553,-0.00000000000000000016173224190354895
0.06688963210702341,-2.7891610558370705,0.0036122515306185234,0.0000000000000000027842290813355305,0.00000000000000005689425304575491,0.000000000000000033729082831647177,-0.000000000000000014265357000723486
0.07357859531772576,-2.767131041194909,0.003848371307605843,-0.00004596490103167187,0.000022319930157324625,0.0000664529299410868,-0.000057443164202965914
0.0802675585284281,-2.7453132594192873,0.004133308669274989,-0.00008442311341497259,0.00003725277843587383,0.00013156766768353985,-0.00009419766908595189
0.08695652173913043,-2.7236792299731722,0.004469004481944342,-0.0000861727796644025,0.000031989617192523626,0.00014670251585212557,-0.00007693841986517584
0.09364548494983277,-2.70225062423717,0.004859668238494839,-0.00009595859224926411,0.000030741739027094596,0.00016787629005689519,-0.00006870126112407879
0.10033444816053512,-2.6810453715942386,0.00531183506230805,-0.00010967703423400228,0.0000307524129299722,0.0001896814467891857,-0.00006231622497937484
0.10702341137123746,-2.6600203805829783,0.005829802501480145,-0.0001266239337569007,0.000031283764774020925,0.00020939011580705508,-0.000055990748957581044
0.11371237458193979,-2.6391987474705147,0.006418387968442382,-0.00014664623375976345,0.000032056970826393376,0.00022382519127072593,-0.000049071710326965547
0.12040133779264214,-2.6185710543614933,0.007079730635388328,0.000004933042873042642,-0.00006952962019735051,0.0004912431842429075,-0.0004138586871215068
0.12709030100334448,-2.598168723533376,0.007825711393226516,-0.00010664179748383907,-0.000025073759688953707,0.00031411494870301165,-0.0002846787140931532
0.13377926421404682,-2.5779559647087247,0.008660851679313936,-0.00015446551936226186,-0.000020075376058861097,0.00021667318633600198,-0.0002824981106816486
0.14046822742474915,-2.5579740426358795,0.009599596938186529,-0.00018430484706983855,-0.000028964550987629555,0.00011366690310187142,-0.00032214175216096325
0.14715719063545152,-2.5381924398824767,0.010649556052710039,-0.0002131069562734647,-0.000042695003683517254,-0.00003755466399415622,-0.00037409987670976785
0.15384615384615385,-2.518630352575905,0.011831187518001173,-0.00024217982682360402,-0.000060946687353118185,-0.0002581981692636433,-0.00043778184046091537
0.1605351170568562,-2.4993149292453953,0.013164154625148252,-0.0002715291881710891,-0.00008396347709785841,-0.0005716522026918484,-0.0005145051131729107
0.16722408026755853,-2.4802100089582004,0.0146778447133664,-0.00030063207528868973,-0.00011229642615562629,-0.0010064230718982022,-0.0006069074768829563
0.17391304347826086,-2.461339137680467,0.01641174802900007,-0.0003285149960155091,-0.00014647934830094264,-0.0015950287492559293,-0.0007179105958099328
0.1806020066889632,-2.4427206417177025,0.018403972600546752,-0.00035379722753132303,-0.00018696678780184015,-0.002373596751282795,-0.0008504357191796917
0.18729096989966554,-2.4243666286189423,0.02073634064724294,-0.00037478747028982544,-0.00023413022556385574,-0.003380761189346172,-0.001007148268813339
0.1939799331103679,-2.4062924197013666,0.023509166556216887,-0.00038955915279966625,-0.00028810164543380663,-0.004654383618683974,-0.001189552130268779
0.20066889632107024,-2.388508914778124,0.026869989476995215,-0.00039605575723912864,-0.00034870700834422735,-0.006228075620715159,-0.0013971608252815607
0.20735785953177258,-2.3710420245191157,0.031050161476416874,-0.00039225823975378414,-0.0004153689689393794,-0.00812488848155336,-0.0016265024398491677
0.2140468227424749,-2.354007518781871,0.03636788618647259,-0.00037602185729927696,-0.00048690866200881477,-0.010355179389851645,-0.0018696924402296757
0.22073578595317725,-2.337516668341024,0.044048048984840965,-0.00034307842718677415,-0.0005616878939550545,-0.012959345306597552,-0.0021084424329750008
0.22742474916387959,-2.321839427399406,0.055782647414676395,-0.00029691075751233704,-0.0006346882501916573,-0.01575548941278355,-0.0023129720875293973
0.23411371237458195,-2.307042707574303,0.0726391671200634,-0.00024029329494429976,-0.0007032733401415155,-0.018630065135668554,-0.002464521047756495
0.2408026755852843,-2.293046517532282,0.09445386131956371,-0.00017566892757045233,-0.0007668713227786969,-0.021525652512735145,-0.0025615190621155687
0.24749163879598662,-2.2766065597016336,0.10367036807302449,-0.00007932256018075871,-0.0008319977044336375,-0.025088717515838747,-0.0025010116541821364
0.25418060200668896,-2.2593017670969173,0.10708962498274152,0.00003550333526616248,-0.0008852626190056529,-0.028738665734907277,-0.002206555202407424
0.2608695652173913,-2.241396146657406,0.10469381601532554,0.0001640154588086425,-0.0009165578602871163,-0.032143015291685194,-0.0015691636239183724
0.26755852842809363,-2.2232500671557327,0.09602748819959286,0.0002968108200365005,-0.0009157064731348675,-0.03487351738127231,-0.0004993379618018658
0.27424749163879597,-2.205655902191784,0.07914049861880511,0.00041969410491407474,-0.0008778627229760278,-0.03652204370867519,0.0009840245485936896
0.2809364548494983,-2.1888002387562078,0.054409341401834135,0.000525264284843372,-0.000805426560708834,-0.036980069470922514,0.0028041589747662076
0.28762541806020064,-2.1708820536144775,0.026563185167993296,0.0006172210734678305,-0.0006882412206376055,-0.03604362194348942,0.005130065144025689
0.29431438127090304,-2.148726285367823,0.0013411867365776932,0.0006924282154779084,-0.0004932640331516699,-0.03265605424767999,0.008381503830235811
0.3010033444816054,-2.128073467142926,-0.03205187332790535,0.0007271408106797952,-0.0002867202163210762,-0.027683506266887262,0.011539745453752194
0.3076923076923077,-2.1096076303243056,-0.06655282833221107,0.0007306679181044864,-0.0001007926019609369,-0.021933627987806997,0.014380314380378276
0.31438127090301005,-2.090500835485239,-0.09475947359829386,0.0007179339955155094,0.00006754598058086448,-0.01515491419136351,0.017288609373008818
0.3210702341137124,-2.070804571836715,-0.11745745635246999,0.0013675114679850785,-0.000006508137542613,-0.03425608598052103,0.015209482915434992
0.3277591973244147,-2.0506597975480125,-0.13555314948662356,0.0011210136105725948,0.00021570495075364014,-0.031081971609138805,0.015425646982454517
0.33444816053511706,-2.0313984757562116,-0.14609291864563767,0.000976314501570112,0.00017155204844165555,-0.025183184653669317,0.017375670505648862
0.3411371237458194,-2.0169163697953008,-0.14515284470823347,0.0007039346860981601,0.00022086254214449108,-0.010009648796664264,0.028898533752507345
0.34782608695652173,-2.002969754744676,-0.14590774733021333,0.0006123431142548275,0.00028066634181399356,0.008885024264254759,0.04044724894740543
0.35451505016722407,-1.989234670264413,-0.1484480610687208,0.0007018442111334677,0.0003505286736719741,0.030503424825531058,0.0513064894052345
0.3612040133779264,-1.9753928438159785,-0.13990076034809218,0.00085331686127007,0.0005527405327773315,0.047140417970798834,0.05917115657578353
0.36789297658862874,-1.9617475834153533,-0.1270662687751894,0.0009371682400590572,0.0006463662983277232,0.05835409789471978,0.06471019368972554
0.3745819397993311,-1.9483198205888128,-0.11153845519200328,0.0009712993993261387,0.0006604626505728016,0.06579119196298001,0.06860308120483276
0.38127090301003347,-1.935693562248251,-0.09975354546661575,0.000989536296871909,0.0006522574245082319,0.07413806420124675,0.07261002707489365
0.3879598662207358,-1.9235920791206798,-0.09161329070040765,0.001003481528481655,0.0006344360692403555,0.08280403704577725,0.07662649113398434
0.39464882943143814,-1.9120408552567123,-0.08729468204910713,0.0010129266829552704,0.0006065316078288614,0.09180460660957235,0.08065293560289002
0.4013377926421405,-1.903769941820335,-0.13129335823831564,0.0010187057906463515,0.0005781212244943252,0.09893199890183871,0.08374734790077304
0.4080267558528428,-1.8966557891004925,-0.19233052461521843,0.0010231921124878546,0.0005495324340793838,0.10539883850232808,0.08651309063344757
0.41471571906354515,-1.8895416363806496,-0.25336769099212125,0.0010276784343293576,0.0005209436436644425,0.11186567810281743,0.0892788333661221
0.4214046822742475,-1.8821423731143248,-0.3086209684137676,0.0010335135121513459,0.0004824686204613904,0.11960443767783037,0.09252794329651486
0.4280936454849498,-1.8747113229185102,-0.36322940097553,0.001039498962563123,0.0004428913827368724,0.12748500340854585,0.09583094375891753
0.43478260869565216,-1.8669624693275508,-0.4119863598798063,0.0010469049537948942,0.00040035770102084316,0.13602394160023054,0.09941985584239747
0.4414715719063545,-1.8577773952861074,-0.434299277402715,0.001060730668061697,0.000344463226480736,0.1475382035515889,0.10430086273510694
0.44816053511705684,-1.848592321244664,-0.45661219492562377,0.0010745563823284998,0.0002885687519406288,0.15905246550294727,0.10918186962781642
0.45484949832775917,-1.8387583600163409,-0.4606437342107976,0.0011055540635839948,0.00023206648864203803,0.1736510557761406,0.1156704373989923
0.46153846153846156,-1.8289123809460484,-0.46433668965723623,0.001136869781610354,0.0001755529686729533,0.1883067699548485,0.12218877831561456
0.4682274247491639,-1.8188358731995526,-0.45457780576203816,0.001208979837486846,0.00014924272400739349,0.20512539087055395,0.13061301988370988
0.47491638795986624,-1.8087420346426917,-0.44380763216298175,0.0012841567523107136,0.0001252031176212182,0.22210661596684614,0.13918054428892962
0.4816053511705686,-1.7987187375189952,-0.4222296041478435,0.0014828849231240519,0.00022853067629338404,0.23146183769150722,0.1487702448921232
0.4882943143812709,-1.788700854377008,-0.39982208453461276,0.0016910955244764747,0.0003416335325613002,0.2402317715800942,0.15843839645656657
0.49498327759197325,-1.7791952155513646,-0.387086272657809,0.0020702352974537024,0.0010577326180215539,0.24310559460400116,0.25533567669005125
0.5016722408026756,-1.7697388863053662,-0.3752814771490121,0.002465829026742408,0.0018318772291039355,0.24541184715615721,0.3606297932187421
0.5083612040133779,-1.7605574347615778,-0.33564016099569766,0.002193824520545,0.003110846193600917,0.2823948354173065,-2.7385985240661004
0.5150501672240803,-1.7514553701797226,-0.28795942663202545,0.0017290121027515428,0.004535612621498653,0.32939275277447216,-6.763319518359568
0.5217391304347826,-1.7435784219954547,-0.18807678176537723,0.0017550706621695014,0.004965478848348627,0.20267911908050168,-6.996882023279401
0.5284280936454849,-1.7366778900395414,-0.04658927986914155,0.0021723527731793233,0.004602410866000639,-0.06248240236766117,-4.208895979360107
0.5351170568561873,-1.7297773580836282,0.09489822202709419,0.002589634884189146,0.00423934288365265,-0.327643923815824,-1.420909935440812
0.5418060200668896,-1.7211221411391813,0.17321049642164116,0.002965568810721942,0.004574843224073799,-0.4079415920813132,-0.3454893346924795
0.5484949832775919,-1.7114318534443416,0.21425634945639382,0.00331711186560901,0.0053224218821270215,-0.37918996176348463,-0.2802935947841978
0.5551839464882943,-1.7008239845928195,0.2534572514211345,0.0038228869089668082,0.005909994612135654,-0.3651881101166257,-0.24913696399965282
0.5618729096989966,-1.6894478087416076,0.291113343086696,0.004457803135592377,0.006363591536720123,-0.3635365101224469,-0.24648188385454864
0.568561872909699,-1.6771780127164047,0.325390539416923,0.005059680799715234,0.006621118060905774,-0.35178000068716675,-0.24141734120233385
0.5752508361204013,-1.6644988735783643,0.3581483971522352,0.0056557923524189,0.006788228546248242,-0.33670750710025354,-0.23564816674447164
0.5819397993311036,-1.6510695139321019,0.38822179936512524,0.00627430693331978,0.006787512656138474,-0.32017811147780517,-0.2299921497924153
0.5886287625418061,-1.637110973988598,0.41585134645097066,0.00692742123856767,0.006657689116083889,-0.30350840483752567,-0.2244969878573817
0.5953177257525084,-1.6226772671972318,0.4417783049067379,0.007613681858931849,0.00640459976634753,-0.2867612745745173,-0.2191113166276119
0.6020066889632107,-1.6076096694317663,0.46638356142173687,0.008348173537894918,0.005972904248897525,-0.2700046298311224,-0.21380423631858875
0.6086956521739131,-1.5919232335908449,0.4882414958119587,0.009115152313802086,0.005297900126604998,-0.25286658915667226,-0.20815452122648853
0.6153846153846154,-1.575686954588246,0.5076715214442074,0.00987306495787839,0.0043876282202450975,-0.23514057233666896,-0.2019455239125321
0.6220735785953178,-1.558891846577717,0.524232422448263,0.010571015791153568,0.003191731922070673,-0.21664300351969282,-0.19490756409272472
0.6287625418060201,-1.5415278474259213,0.5370277118722957,0.011120223967635701,0.0016571144577802717,-0.19717472967433408,-0.18671178901072064
0.6354515050167224,-1.5234886352354928,0.5441545577678896,0.011368272478528153,-0.00027299206630071416,-0.17651651266990148,-0.1769896490545729
0.6421404682274248,-1.504805696639877,0.5442486250543918,0.01107026383970408,-0.0026264679406953007,-0.15499547648566103,-0.16572138422434898
0.6488294314381271,-1.4853896154902695,0.531910438047526,0.009725256437807564,-0.005382463398074651,-0.1328724136148075,-0.15341286056953676
0.6555183946488294,-1.4669255706327788,0.47451429324599076,0.006198310452860345,-0.007737101666331824,-0.08838097839166474,-0.14155659904906387
0.6622073578595318,-1.4483356272669854,0.3858169372619843,0.003005343619794249,-0.010335203439932687,-0.0496116210533608,-0.09956288541231043
0.6688963210702341,-1.4294030627387315,0.25946043777899147,0.003380021461584402,-0.01376170905454688,-0.026944462365049715,-0.08536909923622192
0.6755852842809364,-1.4100643577992986,0.07712428278046554,0.0034862745905070904,-0.01803265579270698,-0.04136632487106272,-0.07493363382415598
0.6822742474916388,-1.3869342925308488,0.180168008328506,0.0033860218623656905,-0.020192495145413825,-0.028383123306718862,-0.05889919761275047
0.6889632107023411,-1.3625497227668557,0.4559962058677168,0.0030888770411518266,-0.020650993790257616,-0.0012210936934320363,-0.04221167459530788
0.6956521739130435,-1.3389799584902091,0.7933867781725648,0.002388823901042064,-0.020263292136865268,0.019412049459819766,-0.027947772638052062
0.7023411371237458,-1.3163087956804052,1.20628491272053,0.0014343325428448142,-0.019269821449818786,0.033830502130923285,-0.016477166102844762
0.7090301003344481,-1.2941922917363216,1.700911711443573,0.000342865835369587,-0.01784040848291143,0.04267713911353827,-0.007722578581806649
0.7157190635451505,-1.2716687766885344,2.2060599624284487,-0.0008060403975721779,-0.016072599982407714,0.0468970634060463,-0.0012516078648817223
0.7224080267558528,-1.2475343325898196,2.4969118547469673,-0.001953371949768192,-0.01400229161764547,0.047155860420727946,0.0033074637618237574
0.7290969899665551,-1.2221772055917441,2.5766550334863147,-0.002965835337183267,-0.011794676186820726,0.04411487113254832,0.006036476816496336
0.7357859531772575,-1.1969102905923588,2.5641613075413368,-0.0036677369642048466,-0.009714539016630424,0.03884648171961217,0.0070615886019531615
0.7424749163879598,-1.1721258067347269,2.499372363903115,-0.004092185097636477,-0.007853378383553654,0.032972274158342474,0.007215879092547837
0.7491638795986622,-1.1481439575702757,2.386020871857764,-0.004274176627546925,-0.00625360536795918,0.02726919358201873,0.006898218052482171
0.7558528428093646,-1.1254299746805123,2.2095476340975173,-0.004266347503861527,-0.004931252837805794,0.022219737764756744,0.006385535450600754
0.7625418060200669,-1.1053142117978583,1.900252519075099,-0.0041377849102909,-0.003917969188052371,0.01821145626192597,0.005872166900565805
0.7692307692307693,-1.0843942922658414,1.6834957753449173,-0.003914510825926822,-0.003005346788055228,0.01455234779138456,0.005348831422275596
0.7759197324414716,-1.0620186481741256,1.5717818239631807,-0.0036019354766637854,-0.0021731300925075846,0.011210046457735056,0.0048406898904971235
0.782608695652174,-1.0386926354421895,1.5112125439306237,-0.003218046671511222,-0.0014544688179631967,0.008350226636924795,0.004396178462003416
0.7892976588628763,-1.0146645823284186,1.476828379804671,-0.002786177570967388,-0.0008521507391828825,0.00599264253482807,0.004037933348012577
0.7959866220735786,-0.9900931287209851,1.4558925409208012,-0.0023280209113087135,-0.0003534105890276628,0.004070298940997058,0.003765960701947741
0.802675585284281,-0.9650349477046815,1.4441350491724207,-0.001856810772561581,0.00005049180876034911,0.0025268001784022696,0.003577791099976294
0.8093645484949833,-0.9395298763444866,1.4379903110908996,-0.001381636765507756,0.00036836113788075954,0.0013017568012424776,0.003468029355857437
0.8160535117056856,-0.9135329526656447,1.4367265159000122,-0.0009103731174215876,0.0005933894216125675,0.0003734960264521489,0.0034418777440334415
0.822742474916388,-0.8871194029594591,1.4379804312341868,-0.0004433324636222108,0.0007447616100444297,-0.0003594168887454362,0.003482957113309183
0.8294314381270903,-0.860303002868542,1.4412818674129055,0.00002165224811966548,0.0008248167351237112,-0.0009424538002792331,0.0035893200279606026
0.8361204013377926,-0.8330708581199061,1.4462599069723834,0.0004937514901073691,0.0008211507868342038,-0.0014001777389375763,0.003775197852312885
0.842809364548495,-0.8054207847576051,1.4522879931753823,0.0009934308500250777,0.0007310485510263994,-0.001781520297572232,0.004047958033520961
0.8494983277591973,-0.7773819486182776,1.4590890673299326,0.0015562751596416764,0.0005408065623120484,-0.0021181107774708406,0.004432801212553163
0.8561872909698997,-0.748922306904865,1.466601132349299,0.0023098060402413608,0.0001699292722412595,-0.002438619367233818,0.005045595100557996
0.862876254180602,-0.7201014867887967,1.4744210379617806,0.0034913225991401787,-0.0004922706331723324,-0.002793084799214249,0.0060659369317985065
0.8695652173913043,-0.6908563292494099,1.482919243220041,0.007283332496513167,-0.0026824260908747347,-0.0034620873425588155,0.009234895849805348
0.8762541806020067,-0.6611997290254835,1.491462116359229,0.0003482773237227822,0.0014072275952073292,-0.002675492711836383,0.004262312564504826
