# n,energy,berry,bcd_x,bcd_y,qmd_x,qmd_y
0.00000022222222222222222,-3.25,0,0,0,0,0
0.006666666666666667,-3.202009954697928,-0.0000039463820782453605,0.000000000000000000014126907918499464,0.000000000000000000011896184612554013,0.000000000000000000007981275924383457,-0.000000000000000000010550016524330311
0.013333333333333334,-3.154675388034403,-0.000029800621730595012,-0.000000000000000000008928425728104904,0.00000000000000000006632461759974039,0.00000000000000000000810408787243192,-0.000000000000000000035486738298930895
0.02,-3.108055990356673,-0.00010055090477943438,0.00000000000000000007670542198018199,-0.0000000000000000002564212040349169,0.00000000000000000030716503840411096,-0.00000000000000000009517123125804745
0.02666666666666667,-3.0621074958407477,-0.0002415842888327755,-0.0000000000000000012529739899974773,0.0000000000000000004897022464179609,0.00000000000000000016502639416593136,-0.00000000000000000005620745050930341
0.03333333333333333,-3.0167481746377276,-0.0004815793603562969,0.000000000000000002363836728932682,0.0000000000000000029483658348514754,0.0000000000000000015364521142386788,0.00000000000000000008642542086642191
0.04,-2.972137010158603,-0.000855003897071959,-0.0000000000000000009149423926830155,0.00000000000000000014782345708105215,0.00000000000000000019442659441294131,-0.000000000000000002837211318681934
0.04666666666666667,-2.9281442189061,-0.0013933006758607017,0.000000000000000001284227163120112,0.000000000000000005867428325941207,0.00000000000000000003343251424805224,0.000000000000000001136687129437454
0.05333333333333334,-2.884768057379289,-0.002133870337771857,0.0000000000000000067378697817258955,0.00000000000000001603065378298094,-0.000000000000000001109256300325888,-0.00000000000000000718700664389794
0.06,-2.842077215001058,-0.003119172999832684,0.000000000000000004869197192329973,-0.000000000000000002327502266070794,-0.000000000000000005266558496881493,0.00000000000000000364381252000881
0.06666666666666667,-2.799995297819043,-0.00439449949991135,-0.000000000000000011338366135750797,-0.000000000000000012527462556313348,0.000000000000000001761566194625474,0.0000000000000000003076448119447178
0.07333333333333333,-2.7596622833552766,-0.0059596882872083356,0.000000000000000005021589934387552,0.00000000000000003598142801309929,0.000000000000000010717490911717702,0.0000000000000000041318677059667206
0.08,-2.7324671427751324,-0.007246862345786218,-0.000000000000000028189905852563155,0.00000000000000003337077033883446,0.000000000000000015866181436306306,-0.00000000000000000012768802570778994
0.08666666666666667,-2.7105195669919504,-0.008433141820660664,-0.00000000000000003871412516124257,0.000000000000000016795018716207202,0.0000000000000000007651407777790716,-0.000000000000000008132661321690392
0.09333333333333334,-2.688662532571052,-0.009753366261988038,-0.000000000000000023104117396882762,0.000000000000000022301530953273802,-0.000000000000000005766764441465518,0.000000000000000008388193468957524
0.1,-2.6669879413307327,-0.011219511410979544,-0.0000000000000000024042784564828588,-0.0000000000000000047731244328599644,0.0000000000000000067585480647983054,0.00000000000000000702175173149775
0.10666666666666667,-2.6455148916507665,-0.012842666394269365,0.00000000000000002660769915601768,-0.00000000000000002907668037921527,-0.000000000000000007952657115586905,-0.00000000000000000503465170955209
0.11333333333333333,-2.6241729647042464,-0.014632755676046086,0.00000000000000001973743525570686,-0.000000000000000004589238525471657,-0.00000000000000003707512088492535,0.00000000000000004070596886641717
0.12,-2.603028588945964,-0.01659467022793348,-0.000000000000000015146839542786936,-0.00000000000000002074392223054329,-0.000000000000000022546437534396817,0.000000000000000051525510319797756
0.12666666666666668,-2.5820363024619026,-0.01874394688233207,-0.00000000000000007230895308502319,-0.000000000000000043531635043458295,0.0000000000000000011834043130067363,0.000000000000000026596136541129585
0.13333333333333333,-2.561188062399622,-0.02109924357936126,-0.00000000000000009110428730580878,0.000000000000000006306317521224933,0.0000000000000000012508990861562497,0.000000000000000039391417842345444
0.14,-2.540520340674465,-0.02366949594538143,-0.00000000000000006769033754971637,0.00000000000000003369861112360178,-0.000000000000000002794092842669908,0.00000000000000005813674470159696
0.14666666666666667,-2.5199689584321563,-0.0264685393853825,-0.00000000000000009024703489110446,0.000000000000000003455372104227134,0.000000000000000023851859579636386,0.000000000000000040023051582467253
0.15333333333333332,-2.4996105929882626,-0.02951832464172496,-0.00000000000000001207982788289866,0.00000000000000017514965062701755,0.00000000000000013688388033053524,0.00000000000000003490395415204104
0.16,-2.479450198594325,-0.0328308285441681,0.00000000000000009574940121840454,0.00000000000000027199704850854306,0.000000000000000141846071039915,0.00000000000000002483045559783825
0.16666666666666666,-2.459362807775533,-0.036423700561437844,0.000000000000000004090397943148584,0.00000000000000001210002053412295,0.0000000000000000267456031741422,-0.00000000000000003224457211292183
0.17333333333333334,-2.439452513347937,-0.04031852544003133,-0.00000000000000008895873790698723,-0.00000000000000007026696224343106,0.00000000000000002814929518215289,-0.00000000000000004664769033946302
0.18,-2.4197738554271266,-0.04453014571209686,-0.00000000000000010016268187676793,-0.00000000000000005821510754001849,-0.0000000000000001313758383602893,-0.0000000000000000456800684282507
0.18666666666666668,-2.4001973854076475,-0.049100094900105716,0.000000000000000045675124856442094,0.0000000000000000791966068281147,-0.00000000000000009039915548921023,0.00000000000000006156607270116625
0.19333333333333333,-2.3808178790905705,-0.05400934650959586,-0.00000000000000013067730408704938,-0.00000000000000016371204518190995,0.00000000000000007831778074921878,0.0000000000000000983039180006232
0.2,-2.3615630242010814,-0.059366634643484094,-0.0000000000000003265750492439046,0.0000000000000002787779356513342,-0.000000000000000011053689257658608,-0.000000000000000024242688144520644
0.20666666666666667,-2.3425252784283943,-0.06516150167836646,0.00000000000000014713488324079215,-0.0000000000000003807097622604382,0.00000000000000017729561784204547,0.000000000000000009170963891521537
0.21333333333333335,-2.323587641750089,-0.07142040510146737,0.000000000000000005598052228891668,-0.00000000000000008461153764209222,-0.00000000000000012833598818252567,-0.00000000000000007996747603919451
0.22,-2.304853096683099,-0.07818690773791848,-0.00000000000000026854532531032866,-0.00000000000000009308277758722964,0.000000000000000038891645091327686,-0.00000000000000016975051783689072
0.22666666666666666,-2.286294014919873,-0.0854831816741536,-0.0000000000000001515932850734411,0.00000000000000003092969339625046,0.00000000000000023759482771359563,-0.000000000000000050729152215555116
0.23333333333333334,-2.267880307137041,-0.0933472472467551,-0.00000000000000010173893217250607,0.00000000000000012582142106746834,0.0000000000000002330374416114068,0.00000000000000008931550057654083
0.24,-2.2496207442233125,-0.10182626440504823,-0.00000000000000004475646914138501,0.000000000000000006093124444447939,0.0000000000000000895091468536885,0.00000000000000009390539499731743
0.24666666666666667,-2.23153314050506,-0.11096177307119844,0.0000000000000008402889029894257,0.00000000000000009306874851252615,-0.00000000000000010237654158544944,0.00000000000000013022869551481138
0.25333333333333335,-2.213564339319893,-0.12085061647976007,0.00000000000000013128070413329155,0.00000000000000003748000983966865,0.00000000000000010872393816563146,0.00000000000000022350871101906806
0.26,-2.195842126832151,-0.1316283058950725,0.0000000000000010001142251532339,-0.000000000000000004701805531903908,0.00000000000000011293501621900102,0.00000000000000023384391587890736
0.26666666666666666,-2.1783224697512953,-0.14323296218092044,0.0000000000000005054279963638314,-0.0000000000000007036284652974149,0.00000000000000010879056243182759,0.00000000000000012810708744942727
0.2733333333333333,-2.1609576540139908,-0.1557422044760748,0.0000000000000002320572680096205,-0.0000000000000008450394339258954,0.0000000000000001314584008172936,0.00000000000000009406775468497792
0.28,-2.1437282162724696,-0.1692369248150418,0.00000000000000023517224280004495,-0.00000000000000014934455711532603,0.00000000000000007352119116549536,0.00000000000000011210762132980787
0.2866666666666667,-2.126642190281935,-0.18378426437116585,-0.000000000000000461840344699554,0.0000000000000007428744887784992,-0.0000000000000002200674256055311,0.000000000000000046937058549674244
0.29333333333333333,-2.1098024237691835,-0.19967907744064578,-0.0000000000000002319705722509005,-0.0000000000000003758301456179883,-0.0000000000000005973445437809114,0.0000000000000001488112464600089
0.3,-2.093165768829524,-0.21699291603044887,0.00000000000000015405419956039828,0.00000000000000030536661183319707,-0.00000000000000028757647243134807,-0.00000000000000007863566122632695
0.30666666666666664,-2.0767307716101087,-0.23567182537357606,0.0000000000000007005428646855892,0.0000000000000008705449036844221,-0.00000000000000024440563484919495,-0.00000000000000011544937977201283
0.31333333333333335,-2.060482140929595,-0.25579850041528274,0.0000000000000007203529542896301,0.0000000000000005392285673030285,-0.00000000000000040099804823689466,-0.00000000000000005677523898900537
0.32,-2.044402063131705,-0.2776850275582937,-0.0000000000000012731859193043746,-0.0000000000000012060205169214345,-0.00000000000000003898940569186166,-0.00000000000000041879071659522507
0.32666666666666666,-2.0285647344455198,-0.30189667779888835,-0.0009327299101337946,-0.000000000000000982662660816437,0.0000000000000006031774696273085,-0.00033220305282148416
0.3333333333333333,-2.0129476168868137,-0.3281085062438727,0.014091156672588137,-0.00000000000000030651769390030356,0.0000000000000005483672478670576,-0.006238113928314187
0.34,-1.9975339430726617,-0.35637940437421267,0.03261706698070648,0.0000000000000008365030253746218,0.00000000000000013193882567842427,-0.013376134795740097
0.3466666666666667,-1.982342267363053,-0.38745958025038646,0.022407860301298772,0.0000000000000029304204951102945,0.00000000000000026484587385045513,-0.010651402391400989
0.35333333333333333,-1.9675033246316787,-0.4219802007235588,0.019633288167514435,0.000000000000001370885809244005,0.00000000000000022287447113314795,-0.009857732949548227
0.36,-1.9528468768568557,-0.4593481386277297,0.018479230315400302,-0.0000000000000004241844030913331,0.0000000000000002539769360767135,-0.009390141393131652
0.36666666666666664,-1.9383579707893253,-0.5000334932048403,0.01734590802482272,-0.0000000000000013450059592455674,0.0000000000000004599520703687283,-0.008778375456362907
0.37333333333333335,-1.9244104973257758,-0.5465378358250378,0.015968522643919132,-0.0000000000000007209750006045775,0.00000000000000016004124507424197,-0.007998933201873844
0.38,-1.9106802839531378,-0.5969477512237473,0.0144601607490534,0.0000000000000002181882493489333,0.00000000000000022856162025777397,-0.007160124736479899
0.38666666666666666,-1.8972073991701395,-0.6524399712094306,0.012787064371790512,0.0000000000000014420314704140416,0.0000000000000008995281377199616,-0.006253302202748909
0.3933333333333333,-1.8842506439484794,-0.7172327773588006,0.010953576156444683,0.00000000000000172209436299272,0.000000000000000602811942635074,-0.005313839931915429
0.4,-1.8715663755115395,-0.7867466375232004,0.009079157297911528,0.0000000000000018800925788925924,0.00000000000000012101722766526601,-0.00437562373189144
0.4066666666666667,-1.859623999496828,-0.868797430760175,0.007166614368003923,0.000000000000002336226199177226,-0.00000000000000031866592251961005,-0.003471767850644748
0.41333333333333333,-1.848159400636424,-0.9619310626709826,0.005318631278765277,0.0000000000000018681587884924412,-0.0000000000000003668250521169889,-0.002620897020733933
0.42,-1.8373757404365247,-1.070860203540535,0.003562660314910116,0.00000000000000008289944765482295,0.0000000000000001430245881285953,-0.0018455416681918703
0.4266666666666667,-1.8281588773276969,-1.2127234378561145,0.002151591572907927,-0.0000000000000011223211900151495,0.00000000000000035884601791721717,-0.0012346803038369779
0.43333333333333335,-1.8208652611382028,-1.3950133452374556,0.0011638910765007482,-0.0000000000000016155430275093209,0.00000000000000021374716442142547,-0.0008257356763925703
0.44,-1.813571644948709,-1.577303252618797,0.00017619058009356965,-0.000000000000002108764865003492,0.00000000000000006864831092563376,-0.0004167910489481627
0.44666666666666666,-1.804346846886876,-1.7250939258608335,-0.0003100424122758079,-0.0000000000000014910534851824854,-0.00000000000000011287213091064415,-0.00021818614391675152
0.4533333333333333,-1.7935164834798636,-1.8442022799683129,-0.00037936032391196856,0.00000000000000005027668998773391,-0.00000000000000032467311798891483,-0.00019445558596687412
0.46,-1.7814118275565556,-1.9383651078463808,-0.0004107454506473785,-0.00000000000000019216216365966966,0.0000000000000001482676799682485,-0.00018625102477914254
0.4666666666666667,-1.7684256656107251,-2.0152715904779472,-0.0004158901514888329,-0.0000000000000016685430844421072,0.0000000000000010948862243320825,-0.00018878674455240135
0.47333333333333333,-1.7546399186709452,-2.080247393706768,-0.0004220149679542288,-0.000000000000000726703188931452,0.000000000000002326742026281496,-0.00019155907151133844
0.48,-1.7405392689106045,-2.1414777389430797,-0.00042851182194275227,-0.00000000000000010990468462307306,0.0000000000000018571758130424187,-0.00019439066541754538
0.4866666666666667,-1.7260622511762576,-2.198363614962436,-0.0004354513960753946,-0.00000000000000005855798173638763,-0.0000000000000008971772560316776,-0.0001972883958088109
0.49333333333333335,-1.7112051156399835,-2.2492297496779843,-0.00044303853099626864,-0.0000000000000014100116416140425,-0.000000000000000021863544473104495,-0.00020024310252694861
0.5,-1.6962296214151709,-2.2971394558408127,-0.0004508540402328177,-0.000000000000001462197412670716,0.00000000000000024446894576920915,-0.00020315972205158433
0.5066666666666667,-1.6811135151472094,-2.342175181003798,-0.0004589380753965446,-0.0000000000000006304994514480456,-0.00000000000000008034548784837651,-0.00020604934989362417
0.5133333333333333,-1.6656691804499433,-2.3836954978912313,-0.00046762171557839665,-0.0000000000000014080990523746389,-0.00000000000000020998558264737666,-0.00020898230058194158
0.52,-1.6500515203319672,-2.42222158990087,-0.00047666543762388004,0.00000000000000031612196030292115,-0.0000000000000008569711921594171,-0.00021187588670307288
0.5266666666666666,-1.6344100615273254,-2.4582305799997024,-0.0004859390428448784,0.0000000000000006206274402577355,-0.0000000000000011183462588188727,-0.00021471033637840108
0.5333333333333333,-1.6187967509013843,-2.4917617139606048,-0.0004954082797340071,-0.0000000000000018660739329330985,-0.0000000000000006122124022322161,-0.0002174743919128165
0.54,-1.6029691076058157,-2.5217248728307795,-0.000505313565703896,0.0000000000000004404594060170304,-0.00000000000000010671539808176473,-0.00022017417481026187
0.5466666666666666,-1.587060841157454,-2.5491888348712473,-0.0005154989795744096,-0.000000000000002336666779942215,-0.0000000000000008941183664486952,-0.00022280453373233817
0.5533333333333333,-1.5711636511896045,-2.5740119241244104,-0.000525908987572023,-0.0000000000000033102935880276187,-0.0000000000000009481277157702934,-0.00022536278002997646
0.56,-1.5553291144378258,-2.5960346373980125,-0.0005365140083387563,0.0000000000000012377001215251937,0.0000000000000008129883927249252,-0.00022784315344886994
0.5666666666666667,-1.5394361265707772,-2.6144233812428985,-0.0005473886359049791,-0.0000000000000004622152723939502,0.0000000000000007027533047027357,-0.00023018725146573183
0.5733333333333334,-1.5236192784522016,-2.629219197527735,-0.0005584566260470142,-0.0000000000000012265064199486536,-0.0000000000000006775410307448349,-0.0002324372959725549
0.58,-1.5078576502007386,-2.6407922616401573,-0.0005696759774679199,-0.00000000000000034114094945514234,-0.0000000000000017981882269636026,-0.00023458836284158047
0.5866666666666667,-1.4921456456649773,-2.6491839380899176,-0.0005810256197395534,0.000000000000002546713162134874,-0.000000000000001676303855401529,-0.00023663208529440085
0.5933333333333334,-1.4766481793815032,-2.6521132417328186,-0.0005925261282992547,0.000000000000002759901100292596,-0.0000000000000008489172117869401,-0.00023852425979374736
0.6,-1.4611899487862567,-2.6502893867984056,-0.0006041812428792789,0.0000000000000007603028490670253,0.0000000000000005733765913316425,-0.00024031294098597708
0.6066666666666667,-1.44587679114402,-2.643864219477557,-0.0006158919310034761,-0.0000000000000005290398480474034,0.0000000000000012925482163921762,-0.0002419901678418699
0.6133333333333333,-1.4308618004082694,-2.632129199641088,-0.0006275518649414165,0.0000000000000024838817545224766,-0.00000000000000036132551124826186,-0.0002435250208874989
0.62,-1.4160804321742313,-2.611550417938039,-0.0006392818141828696,0.0000000000000006694300867173363,0.00000000000000023127736213195366,-0.0002449110785291855
0.6266666666666667,-1.401610440231697,-2.584473693531084,-0.0006509098153654692,-0.000000000000000037938230315979423,0.0000000000000006055979087896827,-0.0002461856773549915
0.6333333333333333,-1.3874831042495246,-2.5508668503776217,-0.0006624027165569419,0.000000000000001357790305368661,0.00000000000000036279272402687413,-0.00024734781177582644
0.64,-1.3738461445027705,-2.5014853109526904,-0.0006737265532040349,-0.0000000000000026377167160515607,0.0000000000000005846148184843816,-0.0002483312441939289
0.6466666666666666,-1.3606619340624677,-2.4422083249019018,-0.0006847742175786017,-0.000000000000004125543553160652,0.0000000000000002304367777203769,-0.00024922062713137366
0.6533333333333333,-1.3481285542977828,-2.369092453007577,-0.0006954149571061269,-0.000000000000001389879343067199,-0.0000000000000010348107273472738,-0.0002499806766879451
0.66,-1.3368547998868454,-2.267579298945077,-0.0007051212189277094,-0.0000000000000018720272706613063,-0.0000000000000010683467102990728,-0.00025057902866525513
0.6666666666666666,-1.3261018093147368,-2.154325925752981,-0.0007144411419097322,-0.000000000000003684507424790518,-0.0000000000000005926592017754239,-0.00025111053040661606
0.6733333333333333,-1.3174838124364563,-1.9887693191656357,-0.0007220135762315108,-0.0000000000000037495139672697585,0.00000000000000021613341668000838,-0.0002514698380332702
0.68,-1.3096218085858484,-1.804692339480312,-0.0007289672315625597,-0.0000000000000031957468476684747,0.0000000000000011428772690516999,-0.00025176817238843386
0.6866666666666666,-1.3015041114269315,-1.6255310580596536,-0.0007361577912816303,-0.0000000000000026937921151923724,0.0000000000000019225094560518003,-0.0002520689607612229
0.6933333333333334,-1.2880183544610193,-1.5495706091220136,-0.0007483219536806093,-0.0000000000000032795936273762698,-0.0000000000000003863405047340105,-0.00025242126911108174
0.7,-1.2736173935693813,-1.4837072791004626,-0.0007614423894528902,-0.0000000000000038065519172890865,-0.0000000000000015277983040646384,-0.00025270965962771724
0.7066666666666667,-1.2580920914074218,-1.4301253728960477,-0.0007757530563897822,-0.000000000000003734579333064828,-0.0000000000000008726542604615733,-0.0002529085371816621
0.7133333333333334,-1.2415522598032644,-1.3866480901474971,-0.0007912603178399103,0.0000000000000010611583055228266,0.000000000000004282663123715272,-0.00025293935424596176
0.72,-1.2243885333361013,-1.3495633949900159,-0.0008076039239570947,-0.000000000000001778920101867072,0.0000000000000032983141912520277,-0.00025279317265071265
0.7266666666666667,-1.2065169377643343,-1.3168298026913405,-0.0008248618073197306,-0.0000000000000006093912584342973,0.0000000000000015808362203388132,-0.00025246077109380267
