# n,energy,berry,bcd_x,bcd_y,qmd_x,qmd_y
0.0000015,-3.2499956148888143,-0.000000000000000009495218109391845,0,0,0,0
0.006688963210702341,-3.201709730084653,-0.000001985011477600651,0.0000000000000000000009485336373526158,0.00000000000000000000006104276654118567,-0.0000000000000000000015163345517862018,-0.0000000000000000000015425085058431222
0.013377926421404682,-3.153910273384374,-0.000014871497211281859,0.000000000000000000021079916518045224,0.00000000000000000001924866324383269,-0.000000000000000000006154266411645635,0.000000000000000000008416139399158489
0.020066889632107024,-3.106537710856752,-0.000049860157779937024,0.00000000000000000008164038591437434,-0.0000000000000000001430628987890912,-0.000000000000000000032854206865484024,-0.00000000000000000010333515216811868
0.026755852842809364,-3.059648778806382,-0.00011901328702213447,0.000000000000000000028235771920815795,-0.0000000000000000003507454224488875,0.00000000000000000005720122098433852,-0.00000000000000000005222505975806391
0.033444816053511704,-3.0132191191681046,-0.00023783928642816192,-0.0000000000000000003190013746448955,0.0000000000000000008928001338865205,-0.00000000000000000008797847923552413,0.00000000000000000015773020532075571
0.04013377926421405,-2.9671893512688943,-0.0004191397653544725,-0.0000000000000000000583638266511259,0.0000000000000000017821988073819632,-0.0000000000000000011973222192197796,-0.0000000000000000001229625316811768
0.046822742474916385,-2.921783085551462,-0.0006781472632457464,-0.00000000000000000024691105875034633,-0.0000000000000000004558170974890243,-0.0000000000000000002980784468421219,0.0000000000000000002655149560125241
0.05351170568561873,-2.876616635288724,-0.0010316099008289322,-0.00000000000000000007135878088737571,0.000000000000000004094572659442327,-0.0000000000000000031276198467835636,0.00000000000000000005596584858766273
0.06020066889632107,-2.8319882944117745,-0.0014973469615387834,0.0000000000000000008260024930437132,-0.0000000000000000002968201477121785,-0.0000000000000000020296183454725308,-0.0000000000000000015264127535267947
0.06688963210702341,-2.7877622071071344,-0.0020948892950838297,0.000000000000000004430782452939929,0.000000000000000008286402322517253,-0.0000000000000000028215109655818046,-0.0000000000000000003362664686396125
0.07357859531772576,-2.7489755569635985,-0.0027569304309512503,-0.000000000000000002866459490659796,-0.000000000000000007667173453994022,0.000000000000000002668398415060916,0.0000000000000000007584437921082657
0.0802675585284281,-2.7239917023302884,-0.0032522076365289203,0.000000000000000001576948733836721,-0.000000000000000010721663799687504,0.000000000000000004698832327376838,-0.0000000000000000033586427234428735
0.08695652173913043,-2.701240637569712,-0.0037604331136145757,0.00000000000000000311621471428213,-0.000000000000000012967908628550926,0.00000000000000000891876561371784,-0.000000000000000002901833774454635
0.09364548494983277,-2.678587435639297,-0.004322285639707293,0.000000000000000007550907314356977,-0.000000000000000024899131341873907,0.000000000000000001995835984128195,-0.000000000000000005577530374891994
0.10033444816053512,-2.6560037621868084,-0.004941666034515617,0.000000000000000017904642248408263,0.0000000000000000008577817550589046,0.000000000000000005599527787899526,0.000000000000000004140696553514565
0.10702341137123746,-2.6336059894178794,-0.005621897185292371,-0.000000000000000003662850982643318,0.000000000000000012156429049294947,-0.000000000000000004734639343626119,0.000000000000000011646492259226297
0.11371237458193979,-2.611299726738937,-0.006363020946954725,-0.000000000000000022312984567582642,0.000000000000000026921255273678023,-0.000000000000000023337672587907726,0.000000000000000008458747535647372
0.12040133779264214,-2.5891636923789787,-0.007168766621415725,-0.000000000000000021114018951681674,0.00000000000000001847272080152522,-0.000000000000000009966742991607016,0.000000000000000007236212422093674
0.12709030100334448,-2.5670680391505023,-0.008043847850426805,-0.000000000000000009069944314217339,-0.000000000000000000563674951638976,-0.000000000000000004006704423303447,-0.000000000000000013803383662722633
0.13377926421404682,-2.5450214415946233,-0.008991134679965007,-0.00000000000000001139903627673191,0.0000000000000000014731492153677349,0.000000000000000008503718673987245,-0.000000000000000004811193065214627
0.14046822742474915,-2.5231598975676994,-0.010011440049802181,-0.000000000000000025417598721132094,-0.0000000000000000022460669724330075,-0.00000000000000001062100588870472,0.000000000000000010624891418468652
0.14715719063545152,-2.501426475821784,-0.011113858859123422,-0.000000000000000028725029479765975,-0.000000000000000014369801856230042,-0.0000000000000000034155924337790378,0.000000000000000001794268384467785
0.15384615384615385,-2.479852306719837,-0.012294679193013098,-0.000000000000000014183464941084754,0.00000000000000003199833421257115,0.00000000000000000728305858368136,0.00000000000000001005039832651552
0.1605351170568562,-2.458362618739718,-0.013569815026297076,0.000000000000000001613493283624893,0.0000000000000000048292495945487006,-0.000000000000000008660183211842954,0.000000000000000005065665763631733
0.16722408026755853,-2.436941801268418,-0.014938106404181107,0.000000000000000024617939790514345,-0.00000000000000009312601618793395,-0.00000000000000003118215355291467,-0.00000000000000000066449809024939
0.17391304347826086,-2.4155853009872916,-0.016397707796381566,0.000000000000000015567547770818695,-0.00000000000000004476667823991118,0.000000000000000020779773077940114,0.000000000000000015039310440133138
0.1806020066889632,-2.394440329592034,-0.01796208715091308,-0.00000000000000006929628271616733,0.0000000000000000659297608882606,0.00000000000000002480346132124871,0.000000000000000013950057570764357
0.18729096989966554,-2.3733888800020906,-0.019629406089181803,-0.00000000000000004030072001602883,-0.000000000000000005026500167058577,-0.000000000000000009204039476817291,-0.000000000000000008379276606016946
0.1939799331103679,-2.352410866974826,-0.021407110763638854,-0.00000000000000010407992392844393,-0.000000000000000001971179727553822,-0.00000000000000004543743111199532,0.000000000000000004839048774998528
0.20066889632107024,-2.331616760821645,-0.023309907284991136,-0.00000000000000011431699355068946,-0.00000000000000003772609006887169,-0.000000000000000048909083545705796,0.000000000000000013059816928553424
0.20735785953177258,-2.3108857010071704,-0.025339176899675277,-0.000000000000000009699624800183938,-0.00000000000000008342541830640096,0.00000000000000001217661313004881,-0.000000000000000015156245525964868
0.2140468227424749,-2.2902292374078996,-0.02750141097312774,-0.000000000000000029941034689056,-0.000000000000000054788687432211433,0.00000000000000008086066707854228,0.000000000000000000599018205679667
0.22073578595317725,-2.2697722976334527,-0.029802585845834853,-0.000000000000000007904007002517534,-0.00000000000000005905412403185865,0.000000000000000012508798738290746,0.000000000000000015530073292809076
0.22742474916387959,-2.249342181533048,-0.03224473581573688,0.000000000000000011442950327042789,0.0000000000000000796171378995687,0.00000000000000007553235076361803,-0.000000000000000006555654283038109
0.23411371237458195,-2.229098233073602,-0.034842075542126254,-0.0000000000000000002402104035286463,-0.00000000000000009154053418675987,-0.00000000000000006840337028719144,0.000000000000000007267085566914207
0.2408026755852843,-2.208950981698986,-0.037607832785720226,-0.000000000000000005674851463676185,0.00000000000000003835750543821336,-0.00000000000000008038155615213408,0.000000000000000002382580612122279
0.24749163879598662,-2.1889833110051904,-0.04051768663472904,-0.000000000000000024881990768135316,0.00000000000000011650529402737706,-0.00000000000000010734975344230949,0.00000000000000006284939716412423
0.25418060200668896,-2.1690073134321377,-0.043630512212363234,-0.000000000000000049875580270715126,0.00000000000000029586452575970235,0.00000000000000019230125899674917,-0.00000000000000004335581200508955
0.2608695652173913,-2.149192999547817,-0.04692932698032958,-0.00000000000000002448087178271434,0.00000000000000015543422931506922,-0.00000000000000013442771358878623,0.000000000000000033112493849503024
0.26755852842809363,-2.129570526302275,-0.05042277739026848,-0.00000000000000023885398976450727,0.0000000000000000662829093112643,0.00000000000000003534727470381662,0.000000000000000054305839002366364
0.27424749163879597,-2.10997944922042,-0.05414800912075458,0.0035505251239465693,0.000000000000000042149012616253455,0.0000000000000000014540612002638482,-0.0022691393439609134
0.2809364548494983,-2.090528574685076,-0.058090994806165565,0.0032900842999778832,-0.00000000000000007942752457371899,-0.000000000000000022154073694062964,-0.001930700552456316
0.28762541806020064,-2.0711557464352155,-0.06226279158133331,0.0027580051192957707,0.0000000000000000480673880395736,-0.00000000000000007043502594303217,-0.0014475562497130385
0.29431438127090304,-2.051925039395425,-0.06669415971752439,0.0025428076574606196,0.000000000000000030903359869021485,0.000000000000000028351615460504616,-0.0012080365086532669
0.3010033444816054,-2.0328021519687125,-0.07138170947464692,0.0024308913471159936,0.00000000000000003956554197253105,0.000000000000000010990295620828272,-0.0010527888858978944
0.3076923076923077,-2.013867213645302,-0.07633763226199923,0.0023684026783762965,0.00000000000000003886547063095901,-0.00000000000000011237392793275918,-0.0009402641347800001
0.31438127090301005,-1.9951057348550487,-0.08157114903984022,0.0023334998812065996,0.000000000000000016444319668415163,-0.0000000000000000918290430391,-0.0008527970062362056
0.3210702341137124,-1.9763064190213662,-0.08709878918102537,0.002315319926985791,0.00000000000000026036711704934487,0.000000000000000033314430473622766,-0.0007808065681010907
0.3277591973244147,-1.9576429490893787,-0.09301107351302579,0.0023080041837189864,0.00000000000000003500747218307617,0.000000000000000013830546348564343,-0.0007199864957895425
0.33444816053511706,-1.9392024792341473,-0.09922130381958984,0.002309430366778427,0.0000000000000003749479036832175,0.00000000000000008250000077680128,-0.0006683641601852183
0.3411371237458194,-1.9208103008890416,-0.1058336412328423,0.0023166975321822236,-0.0000000000000000816401947108201,0.00000000000000008535686417465592,-0.0006226899421030805
0.34782608695652173,-1.9026260593396869,-0.11286098748002893,0.002328184555780175,0.00000000000000007186644222847587,-0.00000000000000007719227655462491,-0.0005818194908548664
0.35451505016722407,-1.884552978381123,-0.12025564450615253,0.0016082560556541278,0.00000000000000043300640332743745,-0.00000000000000021089364013483612,-0.0010432272473499902
0.3612040133779264,-1.8665438755129067,-0.12804746509898507,0.0010872161295557598,0.00000000000000012312244248151982,-0.00000000000000017180649567962538,-0.0013582169060238377
0.36789297658862874,-1.8486293303977286,-0.13632137564872365,0.0015657793068922447,-0.0000000000000007281797183878126,-0.00000000000000003785572121660846,-0.0009789186442825685
0.3745819397993311,-1.8308780232647854,-0.14515101547577894,0.0017133949983961553,-0.0000000000000001500409952424632,-0.00000000000000014598491722246644,-0.0008420561185356431
0.38127090301003347,-1.8133091349769577,-0.1544264088558281,0.001794791550889297,-0.0000000000000002258882613468677,-0.00000000000000012327684515169488,-0.0007579260105311825
0.3879598662207358,-1.7958448463542414,-0.16436538671909795,0.0018565892573929115,-0.00000000000000036354040102709494,-0.00000000000000009111363580949492,-0.0006917693694448225
0.39464882943143814,-1.7785753471785544,-0.1748298798513203,0.0019073806556763717,-0.0000000000000002688253627656533,0.000000000000000035620739243511446,-0.0006369893880328278
0.4013377926421405,-1.7614293270958183,-0.18585665740633164,0.0019519903795330751,-0.00000000000000007657979342182821,0.00000000000000011156812994996018,-0.0005895988727285915
0.4080267558528428,-1.7443391711418654,-0.1975394361075,0.0019931973586066907,-0.00000000000000006821589949370058,-0.000000000000000009408811192957043,-0.0005471847796914404
0.41471571906354515,-1.7274461302295763,-0.21003188078746432,0.002031929996342259,-0.0000000000000005981053289459202,-0.00000000000000023576396381479766,-0.0005092422906509256
0.4214046822742475,-1.7106835817144552,-0.2232741633381448,0.0020700293563798615,-0.0000000000000006372097649622334,-0.000000000000000022427543785557166,-0.00047462836795709974
0.4280936454849498,-1.6940890789874008,-0.2372422289959939,0.002107807321172052,-0.00000000000000012423092654733605,-0.000000000000000010718755687640259,-0.00044235332646686226
0.43478260869565216,-1.6776268887004457,-0.25205950843404124,0.0021457510052927506,0.00000000000000034979870288071346,-0.00000000000000011655016105035265,-0.0004119577755182696
0.4414715719063545,-1.661257234090316,-0.2678312035833526,0.0021843690652264317,0.00000000000000017411109422759363,-0.00000000000000014485679667070202,-0.0003830625844882389
0.44816053511705684,-1.645145424250933,-0.2845670698420964,0.00222442042230948,-0.00000000000000011372818263831834,-0.000000000000000045283589284805207,-0.00035620876185040617
0.45484949832775917,-1.6291218800990703,-0.3023859465123766,0.0022653599754869735,0.00000000000000029113908344691294,-0.00000000000000029608338856348607,-0.0003303930508758523
0.46153846153846156,-1.613254686791878,-0.3213075696645641,0.0023073957747424606,0.0000000000000008114130853726464,-0.0000000000000005895559737467239,-0.00030560873800722095
0.4682274247491639,-1.5975762094997155,-0.3413328557035585,0.002350626442979409,0.0000000000000011027876767555426,-0.0000000000000007319779485130947,-0.00028183280822604857
0.47491638795986624,-1.5820550512457643,-0.3626252342605493,0.002395123515098114,0.0000000000000008359235646260503,-0.0000000000000003972378913682151,-0.00025907622555548755
0.4816053511705686,-1.5667978035646444,-0.3854465048251598,0.0024411236894976034,0.0000000000000009664361152601932,-0.000000000000000022849150942387557,-0.0002372942377286552
0.4882943143812709,-1.551720218254104,-0.4095524404149615,0.002488458872089702,0.000000000000000980881550987385,0.00000000000000022415229805317094,-0.0002162157639742472
0.49498327759197325,-1.5367952726867968,-0.43511359410064154,0.00253739334115865,0.0000000000000003199810734456976,0.00000000000000013261505742371612,-0.0001957947231492359
0.5016722408026756,-1.522040547549461,-0.46303537955500995,0.002588425621279341,-0.0000000000000005959007114145917,0.00000000000000064664325203608855,-0.00017609489162836122
0.5083612040133779,-1.507498901964415,-0.49230584498931523,0.002640416337287879,-0.0000000000000013714818914951837,0.0000000000000006890846175776737,-0.00015696453086181175
0.5150501672240803,-1.4931957349202118,-0.5228675189302522,0.002693253179598327,-0.0000000000000019276139280449406,0.00000000000000003667078880535863,-0.00013842623583304166
0.5217391304347826,-1.4791906794028413,-0.5569264338176847,0.0027477826054705607,-0.0000000000000007603731771471409,0.000000000000000742559751120852,-0.00012070244674879042
0.5284280936454849,-1.4653536185353377,-0.5926908343105745,0.0028034275934254557,-0.0000000000000004759292394958611,0.0000000000000008007075008309731,-0.00010337560339444261
0.5351170568561873,-1.4517078307540419,-0.6303750562914425,0.0028603561270573634,-0.0000000000000013502525822642244,0.000000000000000004243556425415841,-0.00008649556667787238
0.5418060200668896,-1.4384615093879092,-0.6720803537938089,0.002917906624702268,-0.000000000000000055362359227665085,0.00000000000000014382169517182688,-0.0000704161190978729
0.5484949832775919,-1.425401822196948,-0.7157131999821524,0.002975794496899225,0.000000000000000917997879246462,0.0000000000000003241588486277059,-0.00005468915996772831
0.5551839464882943,-1.4126808297880575,-0.762872319897008,0.003034321668484296,0.0000000000000005360862555506493,0.00000000000000034920519551778294,-0.00003958941968446626
0.5618729096989966,-1.4004268583129127,-0.8143448555969799,0.00309206492845165,0.0000000000000003339038018592106,0.000000000000000425025504204711,-0.00002522597844031493
0.568561872909699,-1.3884467535471745,-0.8683468303477807,0.0031493484931897396,0.00000000000000023711670160224064,0.0000000000000005306202765956505,-0.000011294311834964
0.5752508361204013,-1.3772723083375595,-0.9301577748457386,0.003204441633348766,0.000000000000000184255713670619,0.00000000000000017920998092982508,0.0000014932326400629983
0.5819397993311036,-1.3662257182288917,-0.993207973080249,0.003259187161475458,0.00000000000000013836563234946652,-0.00000000000000024472527725348728,0.000014099209293599526
0.5886287625418061,-1.356991932347831,-1.0719437339766158,0.0033060331949545667,-0.0000000000000000887560887554499,-0.00000000000000033026746833524406,0.000024438935410603446
0.5953177257525084,-1.3478608679707722,-1.151568308217083,0.003352431608134308,-0.00000000000000032614719600134946,-0.00000000000000039663481181508426,0.00003465024575054066
0.6020066889632107,-1.3378264068509866,-1.2289065287591843,0.0034037603157897316,0.0000000000000008706491046705506,-0.00000000000000037884800450671526,0.000045719716073037875
0.6086956521739131,-1.3272559628676923,-1.304888261786681,0.0034580141539288455,0.0000000000000029183449463164877,-0.00000000000000031113276533412557,0.00005729833041061378
0.6153846153846154,-1.3159024681346327,-1.37978224607388,0.0035158283351282857,0.0000000000000019210979402268874,-0.0000000000000002041936910500084,0.00006956720938749812
0.6220735785953178,-1.3040783972944594,-1.4540225453120825,0.0035757821124877695,-0.0000000000000009060143103572348,-0.00000000000000007368296494334712,0.00008225090444998269
0.6287625418060201,-1.2915843412078003,-1.5285745973919187,0.0036370171891074356,-0.0000000000000012736601529262427,-0.0000000000000003319986588696376,0.00009541275161220066
0.6354515050167224,-1.2788710221095536,-1.6034502719122234,0.003698058970614404,-0.0000000000000011837699022744693,-0.0000000000000006716544707102575,0.00010871006414765477
0.6421404682274248,-1.2656974200921427,-1.6797275025851954,0.00375669840860413,-0.0000000000000012654860377689364,-0.000000000000001032439862653495,0.00012222325246701355
0.6488294314381271,-1.252260824472713,-1.7574823758561604,0.0038111581697489135,-0.0000000000000010776346810157999,-0.00000000000000018022591934725519,0.00013583939571161036
0.6555183946488294,-1.2386091174659477,-1.8364458631268559,0.0038621992314355133,-0.0000000000000006692949291356311,0.0000000000000016641413228947969,0.000149539749281595
0.6622073578595318,-1.2245428373896414,-1.9184169810802405,0.003899616764929528,0.0000000000000007921088269666421,0.0000000000000015746426976858556,0.00016336505361809264
0.6688963210702341,-1.2102869080029772,-2.0018405983793373,0.003925353294707092,0.000000000000002002468011933542,0.0000000000000006342360579321427,0.00017723977736674716
0.6755852842809364,-1.1958297653829855,-2.0869061826326303,0.0039380983497760485,0.0000000000000029148502315204564,-0.0000000000000011171615824969762,0.0001911679075580836
0.6822742474916388,-1.1811256374186834,-2.1772676600325034,0.003915764745430621,0.000000000000002478280760488102,-0.0000000000000008771820248281262,0.00020519378622606976
0.6889632107023411,-1.1662594145921965,-2.2703002648223913,0.003861625449811492,0.0000000000000012321836655428225,-0.000000000000000915238955553251,0.00021941226460025042
0.6956521739130435,-1.1512220691044157,-2.3661567239502115,0.003770823687379026,-0.0000000000000000890590047132457,-0.0000000000000008643785425813307,0.00023388762218723175
0.7023411371237458,-1.1359123227676577,-2.4665206368488097,0.003612066203773969,0.0000000000000008940298018341376,0.0000000000000005173140759072279,0.00024893842748802115
0.7090301003344481,-1.1204773603024172,-2.5728889714771204,0.0033623732496928186,-0.0000000000000002123639652990935,0.000000000000000678031550872674,0.00026497027271947364
