# n,energy,berry,bcd_x,bcd_y,qmd_x,qmd_y
0.00000016666666666666665,-3.122851140348865,0.00000001814278459688072,0,0,0,0
0.006688963210702341,-3.075134239045882,0.0007568839348330924,-0.0000000000000000014350251172794002,-0.000000000000000002528989407585065,-0.000000000000000002325645279215405,-0.000000000000000000944711477712655
0.013377926421404682,-3.0281000243035825,0.0015799408945149965,0.0000000000000000028004313401817897,0.00000000000000000032842739924416123,-0.000000000000000001316239943098349,0.0000000000000000023093419609933574
0.020066889632107024,-2.981705073950921,0.0024890622006737096,0.00000000000000000016366466334750686,0.000000000000000008091901743926154,0.00000000000000000018730695465398043,0.000000000000000002462130540644586
0.026755852842809364,-2.936978206689651,0.0034663596339656985,0.000000000000000003639855444744499,0.000000000000000018305989559292437,0.000000000000000001687178820880695,0.000000000000000006151252054558478
0.033444816053511704,-2.908416929558181,0.003809900672969876,0.0000000000000000043532841964026255,0.000000000000000002462750959931314,0.00000000000000000009939188142095447,0.0000000000000000037413910231513525
0.04013377926421405,-2.8853439425331846,0.003932577416591945,-0.0000000000000000015596292886865713,0.00000000000000002051782160384116,0.0000000000000000011108007634186803,0.0000000000000000024841455078728317
0.046822742474916385,-2.8624271057998723,0.00408398908131214,0.00000000000000001227647890883353,0.000000000000000007778713686812405,-0.000000000000000004562975426154023,0.00000000000000000135935299015646
0.05351170568561873,-2.8397197126334075,0.004268965992092785,0.0000000000000000017447536829060727,-0.000000000000000041801844076812504,0.00000000000000001673791803784817,0.00000000000000000775782160458116
0.06020066889632107,-2.8171875634224426,0.004487699858478534,0.0000000000000000053427641856084805,-0.000000000000000010453139106775386,0.000000000000000000485337425105214,-0.000000000000000007652390749321853
0.06688963210702341,-2.79483215346591,0.004746702854492993,-0.000013140368103112727,0.000006542741575329354,0.000017727142727439417,-0.00001329184543582834
0.07357859531772576,-2.772658826855156,0.00504573529658703,-0.0001032071681177057,0.000049776552114482584,0.00014048642802896725,-0.00010055080811773086
0.0802675585284281,-2.7506572902568283,0.005389408891961083,-0.00009179804766453737,0.00003641957896809461,0.000129977024847999,-0.00007046684301736521
0.08695652173913043,-2.728836411671144,0.005779682655707385,-0.00009642176152414519,0.000032427523148411343,0.0001357299212402502,-0.000059144168775268367
0.09364548494983277,-2.707201419582391,0.006221969479680088,-0.0001058438101578853,0.000030731563313891126,0.00014327333732690057,-0.000051989641773558314
0.10033444816053512,-2.6857237994291285,0.0067200029551165216,-0.00011810006991309057,0.000029936703485417014,0.00014883581812964104,-0.00004621139133346242
0.10702341137123746,-2.6644329147339123,0.007279577087401432,-0.0001326047617158608,0.00002952912356766533,0.00014975386704855118,-0.000040959462153645606
0.11371237458193979,-2.643324230728955,0.007903885542685748,-0.00014917200141554126,0.00002925720985037552,0.00014316578787091649,-0.000036010749897893696
0.12040133779264214,-2.6224050481882624,0.00859509986723734,-0.00016770787777943034,0.0000289663595947777,0.00012554457673112385,-0.00003149998187416296
0.12709030100334448,-2.601689729262308,0.009365608030415445,-0.00010633782723117878,-0.000021634714117196058,0.00015369610826333627,-0.0001959032828152172
0.13377926421404682,-2.5811383377656405,0.010227165885200873,-0.0001071135192921087,-0.00004059050238208154,0.00009023065593748984,-0.00026260113047728523
0.14046822742474915,-2.5607870843121163,0.011186514597553723,-0.000151340216023594,-0.00003642186677607757,-0.00004161005190030464,-0.00025002835445660134
0.14715719063545152,-2.540642382081131,0.01225361675252161,-0.00017672182431658655,-0.000045037217406587344,-0.00019172535598606464,-0.00027330466877991386
0.15384615384615385,-2.520690096437584,0.013448038228091715,-0.00019849765266572648,-0.00005813107874717247,-0.00038770022854972997,-0.0003075372539996989
0.1605351170568562,-2.5009365895685463,0.014787196915024604,-0.00021848361195224395,-0.00007476510439073959,-0.0006452925928060266,-0.00035053091399636643
0.16722408026755853,-2.4814233261620915,0.016303398521239788,-0.00023678345524654192,-0.00009475656456302068,-0.0009802728239488704,-0.0004026782417230797
0.17391304347826086,-2.462132372964801,0.018026399264398352,-0.00025299831580320557,-0.0001181939444661435,-0.001411103083122943,-0.0004654830872156676
0.1806020066889632,-2.443076299183828,0.020008705049430274,-0.0002663422007524046,-0.00014515515912569477,-0.0019575811922819255,-0.0005408248380393472
0.18729096989966554,-2.4242834725326348,0.02232192897969334,-0.0002757573231793818,-0.00017564305632305276,-0.0026400486436101355,-0.000630766336469505
0.1939799331103679,-2.405740822289961,0.02505658762667234,-0.0002800773676394016,-0.00020966227177833142,-0.003480844707488823,-0.0007376635418593064
0.20066889632107024,-2.387515289795593,0.02836291709384348,-0.00027805795413085284,-0.00024692619309403166,-0.004497141090011258,-0.0008631052006041593
0.20735785953177258,-2.3696519290234708,0.03240665264465119,-0.0002685203972312943,-0.00028703224373767826,-0.005701864302911298,-0.0010080058817240104
0.2140468227424749,-2.352260105678737,0.037794112998431974,-0.0002486853733011044,-0.00032967682477909083,-0.007136597869584123,-0.0011752416136928323
0.22073578595317725,-2.3354957317682237,0.04530493739593125,-0.00021866809704688392,-0.0003732205208999688,-0.008762359949837234,-0.0013578518487131882
0.22742474916387959,-2.3197839116463834,0.05713058543738031,-0.00018020647403306527,-0.00041536177840650114,-0.010496080638294195,-0.0015436415261373716
0.23411371237458195,-2.304775356085286,0.07223347601624233,-0.0001341197127321737,-0.0004561558957959219,-0.012326149033536064,-0.0017289449783532832
0.2408026755852843,-2.2901499251904642,0.08974934866036624,-0.00007901794120784206,-0.0004958552793788188,-0.0142827493055456,-0.0019122467345928536
0.24749163879598662,-2.2730688653184647,0.09716573709828798,0.0000007934654940451152,-0.0005398834096901132,-0.016772586874461468,-0.002103955047568352
0.25418060200668896,-2.254807157908864,0.09919370406521091,0.00009960315307784036,-0.0005822503682941981,-0.019533894567707398,-0.002248734530463921
0.2608695652173913,-2.235687054364818,0.09631190788085027,0.00021508739230695172,-0.0006185055766307992,-0.02238212490692338,-0.002273010065789957
0.26755852842809363,-2.2159586509319262,0.08846522837548976,0.0003407570587202807,-0.000643871248445441,-0.02502076876004209,-0.0020673451802861497
0.27424749163879597,-2.1958957856409547,0.07524978066386208,0.0004651062618080973,-0.0006541079696116756,-0.027034352212002698,-0.0014887643649524995
0.2809364548494983,-2.175962848469907,0.05581522469303539,0.0005719044365534135,-0.000647395118548657,-0.02793107828555667,-0.0003885514053022321
0.28762541806020064,-2.157587414690855,0.027808027644064752,0.0006427476499747652,-0.0006276544281761069,-0.027382070384296305,0.0012342532903804133
0.29431438127090304,-2.1391932294920357,-0.005411914736154912,0.0006759565188307182,-0.000598827946179945,-0.025170280362366154,0.0035662547690867626
0.3010033444816054,-2.116920994528697,-0.03978961423968785,0.0006492070501437956,-0.0005607152625218595,-0.019695960807061225,0.007549309540749092
0.3076923076923077,-2.0954877767708884,-0.080715684119331,0.0005444445359538573,-0.0005303169440391782,-0.011034059491354876,0.012753203702152455
0.31438127090301005,-2.076484790356816,-0.12400157761905443,0.0003847546936173663,-0.0005007700619601561,0.00008861097273187794,0.018692984095155768
0.3210702341137124,-2.0566364277346523,-0.163582928872756,0.0001682754836477943,-0.0004021290778967844,0.01633214688172865,0.02647543866438985
0.3277591973244147,-2.035555752802573,-0.19558046533865667,-0.000004259617261599945,-0.00011910732138673601,0.03689404766063742,0.03506064811837306
0.33444816053511706,-2.01214210245069,-0.2041203819038286,0.0004446977561225095,-0.000021372930993743928,0.03059354884542059,0.03720046167930939
0.3411371237458194,-1.9873455448243493,-0.19201418592878045,0.0007409110915441496,0.000010028839705402765,0.01971071979053167,0.036068510093019625
0.34782608695652173,-1.9626222688325874,-0.17084382224962705,0.0007683277304431911,0.00005483633539635123,0.020265863125847668,0.0364305177035506
0.35451505016722407,-1.9446386132543045,-0.13854243457530308,0.0007899993035033081,0.00004145774424538572,0.021828083178620707,0.03707767417931185
0.3612040133779264,-1.928593209786044,-0.10720008309626856,0.0007932312052774476,0.000021279379596189653,0.02447247592780639,0.03809790972659041
0.36789297658862874,-1.9130604238690325,-0.07737657815161798,0.000651653591458558,0.00016725525173960979,0.03464696832742239,0.04710297167469196
0.3745819397993311,-1.8978535739498694,-0.04897153426931181,0.0005142026997098303,0.00033872187059942355,0.04792023694660768,0.05839382736605922
0.38127090301003347,-1.8829828142776075,-0.021882428532376326,0.0006014268892641191,0.00032120721774806925,0.057572407067850793,0.06329145872235219
0.3879598662207358,-1.8685558187540297,0.0034030032918814547,0.000583974928279075,0.00031890022665513574,0.06892580639639743,0.06945562557809726
0.39464882943143814,-1.8544067648209954,0.027153599661099426,0.0005483537891752039,0.0003185506560106706,0.08110092125571285,0.07616306177531043
0.4013377926421405,-1.8405157211221561,0.04935219937744363,0.000504732830018218,0.00032016702308923213,0.09393378397522754,0.08333243386598178
0.4080267558528428,-1.827141537165314,0.06719658658642443,0.0004838887020198638,0.00034731702417723057,0.10682910581389614,0.09130056763343476
0.41471571906354515,-1.8140677675890866,0.07989607743134569,0.0005153457757181845,0.0004302999934439079,0.11514593537607215,0.09895084058072846
0.4214046822742475,-1.8012636349431637,0.08797776649361394,0.0005937457935187329,0.0005633958438538077,0.11935333915001553,0.1063158175457317
0.4280936454849498,-1.7894579278809835,0.0583332903744383,0.0000020522507045966226,0.0018757929766788687,0.10967464468204874,0.15598676300260766
0.43478260869565216,-1.7775993634218419,0.023700413886928652,0.004437298594689459,-0.00009935923222676715,-8.279943862721236,16.581855073357637
0.4414715719063545,-1.76528087679553,-0.020614792041156967,0.028516994748241084,-0.015111103702352427,-49.12795114689261,96.4344907486116
0.44816053511705684,-1.753090314502514,-0.06448722846313268,0.025934282078644944,-0.012876089463319258,-45.33088131034168,88.5003616354189
0.45484949832775917,-1.7410028827038906,-0.10800271138853462,0.0018567737531365938,0.0032629781055970516,-5.541684276370027,9.793985988256992
0.46153846153846156,-1.7301324556306283,-0.14985119201266028,-0.0011978503693790192,0.005661598776996855,-0.3142890434552174,-0.2731094329636771
0.4682274247491639,-1.7194429837512153,-0.19145180776141724,-0.0011266032385273321,0.006017166385332528,-0.22585294056892072,-0.13430014394725875
0.47491638795986624,-1.7094263447128843,-0.22552558047340213,-0.0009160711285403397,0.006688271688617425,-0.23706597415846134,-0.1355966400209622
0.4816053511705686,-1.6994324166285109,-0.2593452904000756,-0.0007008375614380236,0.007370027723591277,-0.2516425875441053,-0.14162229888234923
0.4882943143812709,-1.689906108346433,-0.2960879173573013,-0.00058751511908849,0.007849109812044374,-0.24906600473881296,-0.14146802299794814
0.49498327759197325,-1.6804140899485769,-0.3330448775956985,-0.0004816656722184158,0.008313330112936713,-0.24523160284945006,-0.1408605814308931
0.5016722408026756,-1.6730667700827657,-0.4106525502248941,-0.0004119466534023571,0.008620626894706798,-0.240871858239069,-0.13992028542322096
0.5083612040133779,-1.6662951577339964,-0.4991722090128893,-0.0003519262279847788,0.008885800250638969,-0.23637109439032217,-0.1388906403528807
0.5150501672240803,-1.659523545385227,-0.5876918678008844,-0.0002919058025672005,0.00915097360657114,-0.23187033054157533,-0.13786099528254045
0.5217391304347826,-1.6518284973979396,-0.6572267454004106,-0.00022027469609535417,0.009405563098300011,-0.22669501757402927,-0.13672096905583875
0.5284280936454849,-1.6438790671464065,-0.7215318144204445,-0.00014544515194921733,0.009657237013427545,-0.2213338840413809,-0.13555053571973594
0.5351170568561873,-1.635521371029609,-0.7768939252827901,-0.00006254249386280487,0.00990473258738122,-0.21575975901852898,-0.13435375192708998
0.5418060200668896,-1.6257558653417101,-0.8014183316993044,0.00004819841385622121,0.01013782012677616,-0.20945118254140882,-0.13306610473370312
0.5484949832775919,-1.61588856100737,-0.8228152989488567,0.00016415936231334492,0.010359246757282664,-0.20310861202946645,-0.13177541056122782
0.5551839464882943,-1.6054037531053076,-0.8252414359275572,0.0003117847178340841,0.010509939118786178,-0.19655983604704005,-0.1304662336237682
0.5618729096989966,-1.5948525676850742,-0.8236384842708622,0.000467243309874013,0.010635050611665734,-0.18997528025122667,-0.12913179571479205
0.568561872909699,-1.5840377920543927,-0.806035712937448,0.0006538082843079898,0.010658578515253769,-0.1832486400750329,-0.12769704455244843
0.5752508361204013,-1.5731998974613104,-0.7818009775374128,0.0008515948726553819,0.010627948838255649,-0.1764560454934947,-0.12617923123332422
0.5819397993311036,-1.5623128762395921,-0.7434736531109882,0.0010732268243832102,0.01048223703502805,-0.16952330112832345,-0.12448491502193529
0.5886287625418061,-1.5515288078076321,-0.6930469215977272,0.001303979859298417,0.01024470366706677,-0.16251350174956672,-0.1226220975939617
0.5953177257525084,-1.5408698964141279,-0.6279112544489834,0.0015458211586687402,0.00989554520244381,-0.15541002858769948,-0.12055443760374883
0.6020066889632107,-1.5306264550940114,-0.5419199803733903,0.001781531451026907,0.009434509109009682,-0.14837672962922463,-0.11828795844562759
0.6086956521739131,-1.5207331565290627,-0.4383523749617805,0.0020120747582646177,0.00887918670302804,-0.14140257088442904,-0.11585392187316856
0.6153846153846154,-1.5117755221418026,-0.3003034051913129,0.0022120951993963352,0.00827325898160575,-0.13494751086304752,-0.11341967068327147
0.6220735785953178,-1.5038063067657854,-0.12582893482073276,0.0023798718271426512,0.007613872704171348,-0.1290408175090765,-0.1109851927753264
0.6287625418060201,-1.4958370913897683,0.04864553554984735,0.0025476484548889677,0.006954486426736945,-0.1231341241551055,-0.10855071486738133
0.6354515050167224,-1.4860120801429635,0.20576237231749597,0.002691647365510288,0.005875196188379731,-0.11568777977933223,-0.10503038358279303
0.6421404682274248,-1.476054715656016,0.36164128249810834,0.0028339504765265812,0.004765958879522058,-0.10813162925266034,-0.1014326104766224
0.6488294314381271,-1.4635122749398868,0.44851325825896865,0.0028737934097105462,0.003025636589586727,-0.09879053398964638,-0.09644949088411643
0.6555183946488294,-1.4496174750116624,0.48874471511234185,0.0028176543097722267,0.0008918574473055211,-0.08873960262121622,-0.09084829199921335
0.6622073578595318,-1.433433980817682,0.4405369504244906,0.002737187888942192,-0.00213158287169132,-0.07717010312784724,-0.08453799873076097
0.6688963210702341,-1.4177683259718414,0.34063992457655956,0.005527326354080722,-0.008365283425661429,-0.05818200806455706,-0.08341877622771324
0.6755852842809364,-1.400383146126222,0.29886636919812015,0.0008545998939454872,-0.008139317151568744,-0.04158990935983999,-0.06470840661387879
0.6822742474916388,-1.3802603011889432,0.4194509897881455,-0.0016707982877140909,-0.009156933320656119,-0.03085413385434467,-0.055476294880944535
0.6889632107023411,-1.3590210092615955,0.6497757837745769,-0.002011878165616471,-0.01271008474475096,-0.01557569895922868,-0.059496787569602326
0.6956521739130435,-1.338131807481557,0.9197874400282309,0.0010613002425956014,-0.018047759710997126,-0.030138816652015052,-0.05278242266067412
0.7023411371237458,-1.3177710809673695,1.238746649993967,0.003430448159024822,-0.021474441410596228,-0.027117515523067518,-0.04429065421922932
0.7090301003344481,-1.298184642948546,1.6188548340878923,0.004812071840873072,-0.02347720891471146,-0.01237210129705172,-0.035937529703971696
0.7157190635451505,-1.2768836004555708,2.0121591874271596,0.005894014275494452,-0.024785738223588406,0.0038689768688922634,-0.025366826774921344
0.7224080267558528,-1.2561872591026444,2.4341294328313725,0.006250639424784012,-0.024946510009969097,0.018400673425569627,-0.014676918151263523
0.7290969899665551,-1.2339272697487647,2.692017326394683,0.005769923409187833,-0.02392555463080396,0.031150808729305597,-0.004131044624370715
0.7357859531772575,-1.2103958619484991,2.810721291882787,0.004397095503914516,-0.021769044538745588,0.040328180209636855,0.004730174639984184
0.7424749163879598,-1.1866397624907778,2.8518060819793734,0.002372039064703023,-0.018858547453750936,0.0444089748472188,0.010382120535686875
0.7491638795986622,-1.162970378150176,2.8475939340691205,0.0001877108518901642,-0.015773183284449554,0.04457903515045477,0.013328990994539519
0.7558528428093646,-1.1396574009683107,2.8061604760858576,-0.0018360564890892756,-0.01284679085735981,0.041939063046501475,0.014222429746789578
0.7625418060200669,-1.1169393349010805,2.728797634783625,-0.003502920656425131,-0.010269276011981915,0.03763788840009665,0.01380823657879607
0.7692307692307693,-1.0950965220741198,2.60991927479278,-0.004731167452613826,-0.008118885010616863,0.0326523357193848,0.012722196700048856
0.7759197324414716,-1.0748588353973547,2.4251866712821504,-0.005516429200466605,-0.00642975829719505,0.027800315207746507,0.0114458643152827
0.782608695652174,-1.0561985937260634,2.1866049330688626,-0.005955006312522335,-0.005118917767977432,0.023435881362854835,0.010229025807193806
0.7892976588628763,-1.0366677189859737,2.001404329691531,-0.006157817576708764,-0.0039735614356242325,0.019169891990046036,0.009028084534985133
0.7959866220735786,-1.0152871785181348,1.902457944004646,-0.006124109917901137,-0.0029564472648063818,0.014987172844247748,0.007873803978028112
0.802675585284281,-0.9929363988893657,1.8393314359761026,-0.0058607014328311705,-0.0021200304298157036,0.011224611157990762,0.006884070656609105
0.8093645484949833,-0.9698217627381255,1.7982235151038288,-0.005406847386930717,-0.0014594804975925765,0.00798861495738817,0.006098076224974132
0.8160535117056856,-0.946037002658465,1.7705113900211207,-0.004804592616022028,-0.0009597112891797633,0.005297564200108798,0.0055215220911608055
0.822742474916388,-0.9215428494339151,1.7543402626774565,-0.004083298056613813,-0.0006234127645261291,0.0031854753037457956,0.0051691604014791745
0.8294314381270903,-0.8964862688689395,1.7440699435246203,-0.0032883282975693087,-0.0004173656428863973,0.0015179348924557908,0.004998096661809945
0.8361204013377926,-0.8708881735625869,1.7389160105736672,-0.0024347636552322863,-0.00033413595268727596,0.00021952903249481315,0.00499640561733497
0.842809364548495,-0.8447713310766686,1.7377429658823786,-0.0015170229748087205,-0.0003756247328188288,-0.000784850804229787,0.005166981129500399
0.8494983277591973,-0.8179629414599241,1.7397818809288161,-0.0004550912748441402,-0.0005955076468819835,-0.0015427885155454605,0.005595714532225379
0.8561872909698997,-0.7906793290375059,1.7444072091542813,0.0009185033004856962,-0.0010655672302041963,-0.002170185189235847,0.006415100204359167
0.862876254180602,-0.7628934534778645,1.7510681618793162,0.003249506768008639,-0.0021265980843961753,-0.0027913884373720645,0.00819854342951238
0.8695652173913043,-0.7344049471099124,1.7598978325642773,0.003806793951849843,-0.0020897485175901185,-0.0030244361331452116,0.008648698167836845
0.8762541806020067,-0.7054675971233987,1.770072192222141,-0.003741651256373644,0.002620657610135196,-0.0021957883528347603,0.002035523605489676
0.882943143812709,-0.6759090677317983,1.7817464707477269,-0.0036211763599402137,0.002789249290650393,-0.002414655416506091,0.0021527538399301626
