# n,energy,berry,bcd_x,bcd_y,qmd_x,qmd_y
0.0000013333333333333334,-3.399994151348391,-0.00000000000000003000961478814343,0,0,0,0
0.006666666666666667,-3.3519823230183383,-0.0000038624881474788745,-0.0000000002175154133713906,0.0000000011402486693034603,-0.000000000686810296062399,0.00000000011836350931782654
0.013333333333333334,-3.3046113450279417,-0.000029766381212258133,-0.0000000012676006282035996,0.000000006085106860261555,-0.0000000034484867503079384,0.0000000007133636521681993
0.02,-3.2580355412522173,-0.00010104766990193858,-0.0000000025683383612267527,0.000000018951529208381178,-0.000000010645438076595913,0.0000000016435974649097614
0.02666666666666667,-3.2121027526666652,-0.0002433976357388753,-0.000000004546822767753975,0.00000003952985541907699,-0.00000002130585920763371,0.0000000025758445873927586
0.03333333333333333,-3.166822923418539,-0.0004852222029977956,-0.000000007595132301978946,0.00000007267132318596746,-0.00000003891243363151171,0.000000004381580723168592
0.04,-3.1220487548535623,-0.0008580477629087654,-0.000000016790502774971753,0.00000010472598626671053,-0.00000005637585182726545,0.00000000855002741384387
0.04666666666666667,-3.0780805588057483,-0.0013958621173411185,-0.000000017738504195424657,0.00000017206256001198736,-0.00000009114325307651564,0.000000009997502501330882
0.05333333333333334,-3.0348003630746585,-0.0021356573196611886,-0.000000028248553026863283,0.00000023683830441594269,-0.00000012434512951471612,0.00000001497528043403647
0.06,-2.992106067691466,-0.003121792134502176,-0.00000004240958185226512,0.00000032248146594323676,-0.00000016567515312648391,0.00000002158688697850461
0.06666666666666667,-2.9500479893698626,-0.004396526275079229,-0.00000004766833476252136,0.0000004253365929194141,-0.00000021056516740839726,0.000000025148417942519288
0.07333333333333333,-2.908565099717151,-0.006009603177354356,-0.00000006525111727705321,0.0000005575439697712233,-0.00000027269224961069746,0.000000033518266365181124
0.08,-2.8675027399474398,-0.00802217925035218,-0.00000010143217552838573,0.0000006676200567282774,-0.00000032619816665919107,0.00000004288951937525304
0.08666666666666667,-2.8274071763099626,-0.010497384440960478,-0.00000011222637306732112,0.00000084503885222654,-0.00000040654089959287274,0.00000004810604675605124
0.09333333333333334,-2.787880614557966,-0.013512161415117404,-0.0000001297129653668932,0.000001080630358330715,-0.000000508530007026261,0.000000056327789442380025
0.1,-2.7488556031763514,-0.017128563420423997,-0.00000015915970267885366,0.0000013141964416954036,-0.0000006056090713996428,0.00000006700995255875579
0.10666666666666667,-2.710457160911017,-0.02141922072893431,-0.00000021395221918873507,0.000001582603530733741,-0.0000007181278319995701,0.00000008346784781264938
0.11333333333333333,-2.672701642279836,-0.026520285530864,-0.00000024935576978080996,0.0000018527520621537518,-0.0000008204179240854631,0.00000009170274826732633
0.12,-2.635486138448679,-0.03253803715849306,-0.0000003185916801325094,0.0000021416785738497857,-0.0000009282435088588688,0.00000011330575689506536
0.12666666666666668,-2.6003857507947137,-0.03922314957203711,-0.0000003923214269171596,0.000002467008290707231,-0.0000010461597994042513,0.00000013601280150414957
0.13333333333333333,-2.5786609000714362,-0.043937907555952976,-0.00000040445687795816193,0.0000027985737867567263,-0.0000011680077282990134,0.0000001396701673760544
0.14,-2.5582429761931924,-0.04884189372923446,-0.0000004024929236197197,0.0000030715467844670557,-0.000001256644238756044,0.0000001193317202533954
0.14666666666666667,-2.537962991729188,-0.05420789212982186,-0.0000004890311060614501,0.000003337610811727725,-0.0000013461465055651278,0.00000015781742601164882
0.15333333333333332,-2.5178671613626866,-0.060091436601761014,-0.0000005282884478856527,0.0000035511509171182192,-0.0000014138773000285513,0.0000001544725110835949
0.16,-2.4978625377496435,-0.06646054846193458,-0.0000006096135786635566,0.0000037943197371307444,-0.0000014756262799237973,0.00000017380253942912127
0.16666666666666666,-2.478079178833225,-0.07337887859578385,-0.0000006483742473684596,0.000004183772143388515,-0.0000015932544772953244,0.00000017881587519158318
0.17333333333333334,-2.4584960689973636,-0.08087973019772192,-0.000000679195667987326,0.0000045819232002259685,-0.0000017104324805934906,0.000000177425203840792
0.18,-2.439066517066819,-0.08900569823598471,-0.0000007786406168987804,0.000004912132181359858,-0.0000017946115818669324,0.00000020356446224834619
0.18666666666666668,-2.4197661553079954,-0.09781956203228044,-0.0000008970935274736888,0.000005241481113094756,-0.0000018674248769966568,0.00000023576310163335045
0.19333333333333333,-2.4006105246655896,-0.10738314501300077,-0.000000890554146260396,0.0000056639624561340375,-0.00000195865649410048,0.0000002063951561707868
0.2,-2.381761236067525,-0.11772979772951693,-0.0000009208067222302314,0.0000060950558483095,-0.0000020551251292484094,0.00000019488926385702444
0.20666666666666667,-2.363083695106965,-0.12903286272002687,-0.0000010134044812041715,0.000006524522413498917,-0.0000021276972797623093,0.000000190202218653983
0.21333333333333335,-2.3444770414041503,-0.14132049428751076,-0.000001133535709075187,0.00000694478494151574,-0.00000218130549277414,0.00000020335968493418185
0.22,-2.3260866241413236,-0.15458122920956008,-0.0000012634434683297285,0.000007418640894634695,-0.0000022428634833011176,0.0000002196499663916843
0.22666666666666666,-2.3079474869940664,-0.16889179677904184,-0.0000014104005351748083,0.000007901723043390773,-0.0000022902702542206315,0.00000023703454302948015
0.23333333333333334,-2.2900143969651903,-0.18436779401472306,-0.000001550904126213047,0.000008341748149803938,-0.000002299224528102337,0.00000024504179572815333
0.24,-2.272191900158314,-0.20128584909529282,-0.0000014944763847486216,0.000008829223798798468,-0.000002312514192162988,0.00000017046218529613925
0.24666666666666667,-2.254696964773284,-0.21975152224993855,-0.000001670900061474671,0.00000927522661622935,-0.0000022527443887234946,0.00000017259461266842857
0.25333333333333335,-2.23735004231471,-0.239756841014701,-0.0000019073777669545313,0.000009544934077476878,-0.0000021236107253885888,0.00000018846718975672813
0.26,-2.2201413611448424,-0.2614527827248915,-0.0000020710909221560678,0.000009857936647833667,-0.0000019921069257747586,0.00000017103388320042652
0.26666666666666666,-2.2030928221995736,-0.2849404463510831,-0.0000020683561604708586,0.00001042216118632068,-0.000001913790203196706,0.00000008746402728317329
0.2733333333333333,-2.186483794731378,-0.31082310924250633,-0.0000022219130833911704,0.000010556540087212358,-0.0000016321891770323298,0.0000000467820194969787
0.28,-2.169981591437895,-0.33908795324514573,-0.0000023686541034941035,0.000010511510175642786,-0.0000012193405831812245,-0.0000000034777102961434177
0.2866666666666667,-2.153714942403547,-0.36977066304328193,0.012979504876494153,0.01222762596139461,-0.005254125213714572,-0.005746214078596748
0.29333333333333333,-2.137777542035447,-0.402960172106555,0.04810386723030461,0.04528278790208353,-0.01946732614450659,-0.021293228456357748
0.3,-2.121982646979248,-0.4407529256304717,0.043505513782569775,0.03974070942452353,-0.018456614127042616,-0.020483985227059145
0.30666666666666664,-2.106568799383417,-0.4815231618070543,0.03983745816926166,0.03581140390884207,-0.017358730463664363,-0.01936756721591147
0.31333333333333335,-2.0914708424239907,-0.525224964249839,0.03739399526307194,0.03360063534631041,-0.016370449218542235,-0.018213654188759868
0.32,-2.0766757058054712,-0.5753066194889641,0.03450920850860892,0.031034325018249403,-0.014943012092792824,-0.01659689663465053
0.32666666666666666,-2.0622372774618025,-0.6308198840186771,0.031235562328234642,0.028105521518655637,-0.013326486082919881,-0.014786800443981608
0.3333333333333333,-2.0480649615987123,-0.6903775206034402,0.027692950198016555,0.024926163645950763,-0.011585517290306855,-0.012849526847770075
0.34,-2.0346049476028534,-0.7606576389903086,0.02371209044615271,0.0213410677356851,-0.009733023850632787,-0.010799217969987882
0.3466666666666667,-2.0214436459157583,-0.8379430870215996,0.01963195048720776,0.017659470684366914,-0.007887160640260097,-0.008760163191721205
0.35333333333333333,-2.0087065561908672,-0.925177052563412,0.015410819179000425,0.013840828934187071,-0.006050713254074332,-0.00673709076000752
0.36,-2.0097738476514513,0.09960888240075619,-0.454411894234539,0.966352121281824,2.5837664635615476,-1.013041770040309
0.36666666666666664,-1.9899237591560792,0.16447505504606755,-0.24240311656244293,0.4853545925859339,1.3167043567258983,-0.5040744782523523
0.37333333333333335,-1.9664344497885684,0.22149326139070527,-0.11344573529375028,0.21700626154039152,0.5330307412102238,-0.21756194030045478
0.38,-1.969306839258852,-1.4997863947481855,0.0028060775792491392,0.002408783544941418,-0.0009817731235191819,-0.001169967977147548
0.38666666666666666,-1.961582680020609,-1.6905175779012613,0.0006323489992136238,0.00044034131972722334,-0.0001546162859747298,-0.00026116341246806493
0.3933333333333333,-1.9510129735185793,-1.8266925232095927,0.00015449773247558222,0.000043889460135262716,0.0000063235833421788085,-0.00006387002685312768
0.4,-1.939853822411931,-1.951566345371911,0.000027941186840699375,-0.000026930401942472105,0.000029259068608084338,-0.000013963553753256142
0.4066666666666667,-1.9263907744239424,-2.043248799497311,0.000006924066588810385,-0.00003215906999422949,0.000029369670024811,-0.00000544472886096712
0.41333333333333333,-1.9122841854092862,-2.125674374138102,0.000005705113321380231,-0.000025854407187519532,0.00002560368725051558,-0.000004699482986000679
0.42,-1.8975255240076434,-2.1987491590099433,0.000005140260151865025,-0.000021469671788613247,0.00002291882933580913,-0.000004239894949786949
0.4266666666666667,-1.8821885305758381,-2.266872907788156,-0.0016801154592469712,-0.0017617302794109386,-0.0005960064346063463,-0.0006021914744175343
0.43333333333333335,-1.8665161860817727,-2.3314431670752316,-0.0027272634323219917,-0.0028055244295109574,-0.0009723394782179686,-0.0009788292640192675
0.44,-1.8505477634506824,-2.3920414872697555,-0.0012363829789046456,-0.001145903288482243,-0.00040096222945105965,-0.00046520122955548903
0.44666666666666666,-1.8340994483102318,-2.449549778420778,-0.0009840515484249778,-0.000887101797220058,-0.00031814493062645586,-0.00038441603604123326
0.4533333333333333,-1.8772839314216894,3.00079511835324,0.00011641799175568426,-0.007652132834541076,-0.06916930606135956,0.005846860403989817
0.46,-1.8583399814587267,3.175504537993642,-0.0006524044749370371,-0.008236661879739031,-0.06982037504932581,0.004087546017874416
0.4666666666666667,-1.8376628641314188,3.365810689711575,-0.0018034428682472568,-0.008851510065000989,-0.07099060761397591,0.0021032666043511758
0.47333333333333333,-1.814956015487568,3.578587849989296,-0.0035186535157470215,-0.00951843589608092,-0.0729795517130791,-0.00018247109407576478
0.48,-1.7899138769807923,3.822866848323941,-0.006145595892657554,-0.010282511406563331,-0.07638356457961008,-0.002669891322564804
0.4866666666666667,-1.7599510522196953,4.142048256857505,-0.010758252455091436,-0.011127304096364535,-0.09305879727816217,-0.004155052796043633
0.49333333333333335,-1.7264371129955443,4.542631450114356,-0.020084128256216263,-0.010494297351812447,-0.10679886247328996,-0.0047969880247469825
0.5,-1.6989538012302472,4.909624605096117,-0.028977759162197338,-0.006831522381529838,-0.10084471518106009,-0.0064890730993199105
0.5066666666666667,-1.6794152219466643,5.1828078798047414,-0.0018102158293312688,0.0033367297464419196,-0.06933397194608257,0.0076527742376749424
0.5133333333333333,-1.660036412237498,5.502463585469565,-0.002596507002198903,0.004352354458554142,-0.07447725349642606,0.007811906067162617
0.52,-1.639761129456586,5.798386623209945,-0.011087517287091068,0.004738002582951325,-0.043384010411166594,0.016332686207948966
0.5266666666666666,-1.6150218892241464,5.6809569043026995,-0.008608308879156656,0.006957413849042433,-0.054888668310083454,0.01041902277920793
0.5333333333333333,-1.5916882426965822,5.557858820041302,-0.009682744870340678,0.008756618152012209,-0.05654116356474584,0.008057944639981175
0.54,-1.5696121780743972,5.43368513065247,-0.011576910391586858,0.010404765896623305,-0.056185868875857796,0.006005240123073457
0.5466666666666666,-1.5486756317481776,5.305911208424364,-0.01396067737231821,0.011922284880010134,-0.05437506119743451,0.003993393955145663
0.5533333333333333,-1.5287741678715487,5.171935547796203,-0.016636166546235336,0.01328935746455342,-0.05109352517594801,0.0021572172269012876
0.56,-1.5098354813513375,5.030043415549687,-0.019425278947284342,0.014465452289777561,-0.04636163247192555,0.00042077851838415484
0.5666666666666667,-1.491872615220189,4.876086103412131,-0.022215713682789042,0.0154376628909055,-0.040248274765617396,-0.0011490126265648127
0.5733333333333334,-1.4749222293479534,4.705489074073963,-0.02472471427983698,0.01616551500541051,-0.032873707054555855,-0.0025697741511114705
0.58,-1.458825267526754,4.513806188813494,-0.026900344899052048,0.01668646048049534,-0.024329524441687546,-0.003796797225554798
0.5866666666666667,-1.443568598064303,4.294274910702372,-0.028787503810520605,0.017040963388838225,-0.014646287161799328,-0.004964087780630285
0.5933333333333334,-1.4296096137253327,4.020004941210878,-0.030361777189566272,0.017218865344687747,-0.003283330577203484,-0.006353734026892188
0.6,-1.4166256731554214,3.7165765981975594,-0.03095896095426659,0.017049167766012698,0.012250769035829934,-0.008014697276666208
0.6066666666666667,-1.4041048064699297,3.3993001780838963,-0.031092099208909107,0.016714386042622435,0.029765853980953532,-0.009804516094479947
0.6133333333333333,-1.3914521993749673,3.1950167201920645,-0.030999572858224127,0.016082672069387002,0.0732869626778833,-0.0166298921186977
0.62,-1.378768458515895,2.9960814140915843,-0.031221117367123272,0.015146723225725852,0.09734948952030287,-0.013852624205346378
0.6266666666666667,-1.366014100158922,2.8009314925068223,-0.03229861173391808,0.013429241730445058,0.06727024291104794,0.014922958508964284
0.6333333333333333,-1.3909521664247757,2.8377055094691066,-0.03303025296297856,0.009059630771869791,-0.04316266046795182,-0.014241815107972056
0.64,-1.372659334720343,2.4416050533697584,-0.03366186859621671,0.00847448580525667,-0.032442478292541904,-0.014704211415296107
0.6466666666666666,-1.3555269057694985,1.9776781153703693,-0.03384029515175338,0.007914560737576452,-0.02375414474020293,-0.014479682438914343
0.6533333333333333,-1.3402958544992691,1.395682371016133,-0.033598748500553076,0.007487433569584612,-0.017077461139307124,-0.013989022783006509
0.66,-1.3261275341612149,0.8528474230739831,-0.03273530101238485,0.007001789455978418,-0.009832389089342294,-0.013080126295743818
0.6666666666666666,-1.4014622440733158,4.593856665792489,0.31118660701431244,-0.059042315950127267,0.08429470784745205,-0.47268395927350937
0.6733333333333333,-1.376438985879159,4.711981357534507,-0.011240942465376297,-0.08976265409839716,0.12997889190539805,0.47304922005092437
0.68,-1.3490453592403577,4.78838628273545,-0.9303292307059453,-0.11059642860210384,0.14952483254040652,1.4201897862841417
0.6866666666666666,-1.3131008781819324,4.304389394866439,-0.954369211322291,-0.11105360120491992,0.14120822577654477,1.4144736001488865
0.6933333333333334,-1.2791625232675188,3.7768608882391397,-0.835400835384925,-0.09639589763278446,0.11676489608609751,1.104958645416375
0.7,-1.2485062621476692,3.317568221524958,-0.813681869309585,-0.07848837103727391,0.09183105574512664,0.7728890010233183
0.7066666666666667,-1.2208118626382634,2.920692592387036,-0.8820792978593507,-0.06269173120339362,0.07131708766872442,0.5115928844837647
0.7133333333333334,-1.1956194587555664,2.578615797846306,-0.997717732571483,-0.04996555328909693,0.055540582594728945,0.3348104673506378
0.72,-1.1727334751218832,2.279197623554718,-1.1246633942357283,-0.03995010901739734,0.043469691041398764,0.22785430580155153
0.7266666666666667,-1.1522920494831175,2.013473876942969,-1.241113137741792,-0.0322411347919514,0.03440242789563624,0.17425726875031886
0.7333333333333333,-1.225461827375571,3.3074193604438777,0.03779548965443318,-0.015625890308350602,0.01232039585327191,-0.013624379379158731
0.74,-1.200905847528949,3.4064620060347375,0.03430272220919803,-0.014152565530742678,0.030908281011888854,-0.013176860409954451
0.7466666666666667,-1.1761899390330837,3.465727837616933,0.028854727596185042,-0.012686063746287871,0.04306950463956043,-0.012735747076932563
0.7533333333333333,-1.151506087568496,3.494799827761778,0.022633280315775148,-0.011447037475878335,0.04967917699223231,-0.01251817884624054
0.76,-1.127059480965711,3.4974755818648267,0.016530376498790175,-0.010544245286335236,0.05203990451497893,-0.01252007735382891
0.7666666666666667,-1.1030071300301638,3.4748552703136064,0.01120140751762242,-0.009987461327354336,0.05126994326605155,-0.012387466495010855
0.7733333333333333,-1.079457457523384,3.4288106409448154,0.006732848709586288,-0.009664946883708534,0.04862285761106315,-0.011962046140648351
0.78,-1.05661187845886,3.3578566114625237,0.0031449770443776935,-0.009461209971385841,0.04484269602727668,-0.011114480237008718
0.7866666666666666,-1.1142894723551826,2.0807705973476116,-0.002405634862395746,-0.002101466299742657,-0.0001560003948101073,-0.00019069276727745016
0.7933333333333333,-1.0919798750021146,2.1102238844160834,-0.002430179420801157,-0.0021217256637594056,-0.0001360298460243176,-0.0001700446412688767
0.8,-1.0692540215874644,2.138882583457151,-0.0024517990617334323,-0.002138674013946134,-0.00011569862107526763,-0.0001480362098867056
0.8066666666666666,-1.0459769341459657,2.1665552513752417,-0.002469526403968617,-0.002153468088383469,-0.00009473469446990762,-0.00012472840138711178
0.8133333333333334,-1.0223920770619144,2.193437591742706,-0.0024836882128704543,-0.0021659276888581942,-0.00007285082066037899,-0.00010115828024077856
0.82,-0.998205344912118,2.219435876174092,-0.0024958523647724508,-0.0021732353697572035,-0.00005124731257304432,-0.00007651612996531413
0.8266666666666667,-0.9735092085488725,2.245501368264186,-0.002502594963455906,-0.002178814302902659,-0.000028249543821570258,-0.0000523785487619061
0.8333333333333334,-0.9485020730166372,2.270825998736187,-0.0025034432584917572,-0.00217849603566104,-0.000005809324401525856,-0.000026885668113177478
0.84,-0.9229049635315972,2.2960126251422186,-0.0024975331208381053,-0.0021723843170164316,0.000017045492003796682,-0.0000006634855668354786
0.8466666666666667,-0.8967123285327296,2.321102570238578,-0.002486297394050025,-0.0021612941251315564,0.000039814146029522176,0.000024884610489843056
0.8533333333333334,-0.8701022476727108,2.345853268081104,-0.0024664569402639874,-0.0021437230840191733,0.00006323040753728701,0.000049346583997011975
0.86,-0.8431749477704176,2.3701219624879943,-0.0024376006962809793,-0.00211867125512301,0.00008613403792385711,0.00007334612951530691
0.8666666666666667,-0.8156003929072484,2.3946717219508638,-0.0023992449863358047,-0.0020828915728374827,0.00010712325823559875,0.00009772532076668618
0.8733333333333333,-0.7875012693487918,2.4193323050929956,-0.002347257958613107,-0.002037190969914364,0.00012801643160420282,0.00011989151689022655
0.88,-0.7589210314028499,2.444088606419516,-0.0022847564213432777,-0.0019804828897902645,0.00014627606734939319,0.00014014634776458109
0.8866666666666667,-0.7298294722237952,2.4685098651347928,-0.002208023834036296,-0.0019109373507737418,0.000163074896526752,0.00015828178896503108
0.8933333333333333,-0.7001702418116204,2.4936783432412737,-0.002109829298745045,-0.0018263756017141385,0.00017899120844193806,0.00017477865020906495
0.9,-0.6699389185211926,2.518971782493041,-0.001995403032038148,-0.0017237776904138417,0.0001893480613863547,0.00018630825847054184
0.9066666666666666,-0.6392511859859664,2.544832489564009,-0.0018606183310632153,-0.001604412415248283,0.00019672581386014724,0.00019428207844857662
