# n,energy,berry,bcd_x,bcd_y,qmd_x,qmd_y
0.00000007407407407407407,-3.217274027046273,0.000000007949713249798615,0,0,0,0
0.006666666666666667,-3.1695653280210236,0.0007406135095590142,0.0000000000000000010298909672179273,0.0000000000000000007150857678585971,0.00000000000000000025928591066816325,0.0000000000000000006569593755291987
0.013333333333333334,-3.1225361990459737,0.0015407439313099927,0.0000000000000000018897470535129752,0.000000000000000004783436978876169,-0.00000000000000000021091999051515193,0.0000000000000000000794436067355291
0.02,-3.0762097704328752,0.0024199338617421047,0.0000000000000000005692700910925842,0.000000000000000005682270756541508,-0.00000000000000000255981734750076,-0.0000000000000000004627286846591626
0.02666666666666667,-3.0304985237716657,0.003400765419971253,0.000000000000000005695285370081621,-0.000000000000000002040532096974496,-0.000000000000000007000675374186226,0.0000000000000000011924059782696905
0.03333333333333333,-2.9855248259607965,0.004511475261229454,0.000000000000000008684690725638654,0.000000000000000012350869863297668,0.000000000000000006797903957072772,0.0000000000000000016536060931423582
0.04,-2.941179391606142,0.0057837722690722605,0.0000000000000000035954550066707845,0.00000000000000001468710225976797,0.000000000000000012134186145472829,0.00000000000000000828603381607609
0.04666666666666667,-2.8975305191981953,0.007249282808564135,-0.000027544245959760506,0.000015261779811023645,0.000031969904152981995,-0.000034145572347398445
0.05333333333333334,-2.8545216231543495,0.008950026544341488,-0.00005870862478631671,0.000025546289686089094,0.00008009372057171665,-0.00005320032664558642
0.06,-2.8172425050634877,0.010546885387424779,-0.00006255403060303397,0.000020604084405939376,0.00008944391107514004,-0.00003678311656664801
0.06666666666666667,-2.794970966527503,0.01122847284165597,-0.00006985008842294773,0.000019916482213627936,0.00009657743303774417,-0.00003135138010616684
0.07333333333333333,-2.7728571955446952,0.011995893727677691,-0.00007902497260978864,0.00001966246493362298,0.00010170686777483298,-0.000026467029069242696
0.08,-2.7509287891789986,0.012859548646013986,-0.0000898536604758287,0.000019596381616969755,0.00010299967306163051,-0.000021727035914470854
0.08666666666666667,-2.7291805501662187,0.013829568725594613,-0.00010225498113740408,0.00001957868807547464,0.00009817782635123805,-0.000017080923287520832
0.09333333333333334,-2.707611360403863,0.014917954737883283,-0.00011624464375262348,0.000019512152405619465,0.00008432261146963423,-0.00001276306551414737
0.1,-2.6862493919002812,0.01613835455210159,-0.0001318091421115553,0.00001932365737699383,0.00005763606265872675,-0.00000928055509170327
0.10666666666666667,-2.665061647248051,0.017504696522675837,-0.00014897302238347355,0.000018948284168624598,0.000013085389864389423,-0.000007467247835060491
0.11333333333333333,-2.6440362496110374,0.01903682303553185,-0.00016771652815413085,0.00001832175053242875,-0.00005590843564580613,-0.000008606557018582923
0.12,-2.6232006407326676,0.02075727279167726,-0.0001879264465342472,0.000017383232523561406,-0.00015765441845141254,-0.000014554853615334774
0.12666666666666668,-2.602579806218276,0.022691050382946783,-0.0002093994420796164,0.000016072769748614314,-0.000302551340258392,-0.000027886622928466985
0.13333333333333333,-2.5821731266140477,0.024880584980612894,-0.00023187103769475073,0.000014328394151882628,-0.0005037219207956179,-0.00005211079438980956
0.14,-2.5619670451151157,0.027363529986579052,-0.0002549779895573454,0.000012092894790324999,-0.0007775721612975838,-0.0000919279372820443
0.14666666666666667,-2.5419587640552437,0.03019609935296203,-0.00027816189283660496,0.000009318902665116193,-0.0011439279319693026,-0.00015345913056924465
0.15333333333333332,-2.5221964007923536,0.03346209997991923,-0.00030067537395975463,0.000005971236242963252,-0.0016250994255203742,-0.00024424066311692135
0.16,-2.502700085574051,0.037275218903835505,-0.00031437346478845784,-0.000002627110547978595,-0.002244078072503387,-0.00038922895282205073
0.16666666666666666,-2.483477317306501,0.0417863740043959,-0.00026210198495852554,-0.00005252504479866439,-0.003008865199421513,-0.0007210450612878534
0.17333333333333334,-2.46457620817528,0.04734090641500572,-0.00029245932913810643,-0.00005241906038565125,-0.004051633552063493,-0.0009534307986211177
0.18,-2.4460776557402624,0.05438854579809184,-0.00030375751125103444,-0.00006053386438842837,-0.005328338105368796,-0.0012888151025603498
0.18666666666666668,-2.42814463648316,0.06373048765965555,-0.00030401186273566007,-0.00007154516859138285,-0.0068567785006110145,-0.0017208653672939633
0.19333333333333333,-2.4111760711443986,0.07748035458620829,-0.0002951435180937468,-0.00008359597074610887,-0.00860441720486126,-0.0022410273098277594
0.2,-2.395010523311971,0.09557383095769688,-0.00027822220081102277,-0.0000960632801278937,-0.01056040483916246,-0.002847393009934128
0.20666666666666667,-2.3793742067608976,0.11746586437140194,-0.00025335324945833447,-0.0001087881931480224,-0.012745457279320131,-0.0035486901338796224
0.21333333333333335,-2.3606496444923706,0.12895374652362748,-0.00020753679719078555,-0.00012429548334096945,-0.015907639096419436,-0.004615056552108185
0.22,-2.340476684044828,0.13573915629479685,-0.00014117099211755202,-0.00014030117936668588,-0.019887821753573114,-0.0060176711953881835
0.22666666666666666,-2.319040324981409,0.13838285844861037,-0.00005078969017284931,-0.00015523434136358884,-0.024789322946530565,-0.007825854429996136
0.23333333333333334,-2.2965151528674443,0.13715479463491304,0.00006470897556983709,-0.0001668689974859485,-0.030655240478082407,-0.010093182431124729
0.24,-2.2729509874131844,0.13199227313299938,0.00020393511743414,-0.00017212925283627544,-0.03749882072317451,-0.012871344237101524
0.24666666666666667,-2.24843433206,0.12270887719624142,0.00035938572389796765,-0.0001675489220326258,-0.045208155689303565,-0.016160390537519234
0.25333333333333335,-2.225002821184034,0.10523572059479817,0.0005061806633033377,-0.00015318947095060195,-0.052912872849515784,-0.019584776919591113
0.26,-2.2056008417073603,0.07714801832419085,0.0006188355544662632,-0.00013415916973763493,-0.05946669180173983,-0.02258371951600521
0.26666666666666666,-2.188345777730582,0.04833095616168958,0.0007079879599760416,-0.0001125026309273442,-0.06543070781897353,-0.02535957585499819
0.2733333333333333,-2.17133922707285,0.024031750180508425,0.0007796916486687045,-0.00008730591627305014,-0.07153922141704014,-0.028221460818339462
0.28,-2.154602627332561,0.002947261785562285,0.0008304962617799548,-0.0000608292185101459,-0.07804748114161364,-0.031231040596313153
0.2866666666666667,-2.1381087896667705,-0.015968481782729582,0.0011058584624162979,-0.00010711517000784512,-0.09686615082901907,-0.03683272282294759
0.29333333333333333,-2.1218761300231006,-0.03311421890664808,0.0013601241090580658,-0.00014268136588481542,-0.11926749106276804,-0.04385556648498234
0.3,-2.1059228167198327,-0.04882082503966435,0.0013162512552980525,-0.00007818728185583209,-0.13471074470349195,-0.05069210622229264
0.30666666666666664,-2.0905001236251963,-0.0630847847674364,0.0013035107805492454,-0.00011532486221826004,-0.15607039784611398,-0.05883293497520193
0.31333333333333335,-2.075593831062181,-0.07695181968126642,0.0012491270125543233,-0.00017156893113082705,-0.18707936212017115,-0.06779482061471452
0.32,-2.061425038226267,-0.09149200024698198,0.0011032245732133467,-0.0002032575904405219,-0.2516817636065394,-0.0614945099925385
0.32666666666666666,-2.048770664069646,-0.10872315014309426,0.0007355725523329873,-0.00012980903449161084,-0.4061767353744098,-0.006508950300841768
0.3333333333333333,-2.0352688535010013,-0.11502711369542336,0.0005343740112452429,-0.00015416550642220723,-0.19097887770180938,-0.05929147570829435
0.34,-2.0211214370141164,-0.11146629940614519,0.0004836650503412871,-0.00024578066445769174,0.21247295143730008,-0.16629666055741313
0.3466666666666667,-2.0065297912917477,-0.08837300117268124,0.0007324633804711214,-0.0003236578922047794,-0.02738463054026874,-0.0799041111594615
0.35333333333333333,-1.992032765044707,-0.0717452719424385,0.0007828073080944598,0.000179388862482629,-0.08012081378397672,-0.03754857863543412
0.36,-1.9771919261032433,-0.061528298459535925,0.0007668364150497498,0.0009127374352530604,-0.044732688159947194,-0.020202372024002636
0.36666666666666664,-1.9609072685494175,-0.06288007008995268,0.0008766437232781165,0.0014112721319902233,-0.03359047768035825,-0.012890308945653376
0.37333333333333335,-1.9436887427706342,-0.06595117449283326,0.000942891347212596,0.0018484122452258392,-0.030291416664270883,-0.010915348207280823
0.38,-1.9258117643604984,-0.06847813701704983,0.0009943498884121518,0.002260347316698606,-0.029339932497596685,-0.01069573655564183
0.38666666666666666,-1.9073645531894676,-0.06966885651659525,0.001039895517027056,0.00265240905173262,-0.02958588466742163,-0.011486864384178622
0.3933333333333333,-1.8883458989911708,-0.06860597107750807,0.0010864504273254752,0.003027076568360005,-0.030452087536486618,-0.012901265227975734
0.4,-1.86879649048548,-0.06419599064875162,0.0011386025399684912,0.0033811608809473873,-0.031738128534050086,-0.014783939244092617
0.4066666666666667,-1.8488861986064342,-0.05529653564247986,0.0011992949015418887,0.0037061752639300886,-0.033418370061791505,-0.01707765462116905
0.41333333333333333,-1.829269146824261,-0.03982312036516185,0.0012695938835397234,0.003986924088019058,-0.035522390358305476,-0.01972064407337247
0.42,-1.8116225351304074,-0.016542705812355306,0.0013452244842238018,0.004205141329253026,-0.03791530696207033,-0.022467220067292126
0.4266666666666667,-1.797638698869575,0.012530690001940663,0.0014246637752064672,0.004350765437268003,-0.04046825880504434,-0.025078104122455102
0.43333333333333335,-1.7838849720004049,0.04401427900077067,0.0015328511476572107,0.004493160976759514,-0.04365929023070253,-0.028072015351577245
0.44,-1.7703103012770125,0.0776322862159121,0.001654868257705766,0.0046503106779041325,-0.04712196679217136,-0.03102512691582691
0.44666666666666666,-1.7571432616896452,0.11973349512952108,0.001688853554930224,0.005082685767108282,-0.04805613627612166,-0.029143334179667437
0.4533333333333333,-1.744326961519523,0.16842460891396313,0.0017561240879597675,0.005335519228853395,-0.051047941360145004,-0.029475714912398834
0.46,-1.731912438084345,0.22466454764484575,0.0018615233077182612,0.00538268533380768,-0.05639679578751514,-0.03234446122935702
0.4666666666666667,-1.720403223435457,0.2952949171010276,0.0018922719650034422,0.005272611518884605,-0.05928445896439457,-0.034270522944588676
0.47333333333333333,-1.7091526518119116,0.3700365738827514,0.001901693261266585,0.0051176149006069045,-0.06146896984604161,-0.03592726351655199
0.48,-1.6994786931576833,0.47982587057498904,0.0019011774339992105,0.0048931284334639506,-0.06201980956162007,-0.036800057151256164
0.4866666666666667,-1.6899515306632769,0.5928784024744809,0.001899736375490976,0.004662171866709643,-0.06241854051096488,-0.03759985861722049
0.49333333333333335,-1.6820946044153342,0.7544284601024358,0.0019044430533492278,0.004428725384161693,-0.06218926743190849,-0.037981578499440394
0.5,-1.6749039086847142,0.9353234048524139,0.0019116019648890805,0.004194285714038751,-0.06170949359308927,-0.03819653232661215
0.5066666666666667,-1.6677132129540944,1.1162183496023936,0.0019187608764289332,0.003959846043915806,-0.06122971975427005,-0.038411486153783904
0.5133333333333333,-1.6566859215676772,1.1733011955924944,0.0019439322257785163,0.003519626112884482,-0.059710056682295745,-0.03828773521446381
0.52,-1.6446495500068012,1.1971138158508174,0.001974288990909348,0.0030197800222842744,-0.057881230164075155,-0.03805055992999405
0.5266666666666666,-1.6316857498816888,1.1779733576985065,0.0020172638706777227,0.0023686545999065914,-0.05514311016205151,-0.037282408629274046
0.5333333333333333,-1.61863800369316,1.147800776089631,0.0020580044298829305,0.001655212546450696,-0.0521231717601658,-0.03630579633014003
0.54,-1.6054810662474415,1.103278368167629,0.002095838738796838,0.0008607133115816157,-0.048736663395046315,-0.035058032322807714
0.5466666666666666,-1.5923426335745379,1.0374796922135707,0.002107167388450617,-0.0000610254994587165,-0.04498139577733957,-0.03348477150691274
0.5533333333333333,-1.5792437127871317,0.9612513075071939,0.002099942243016407,-0.0010543439607950812,-0.04108027461807847,-0.031799848350536564
0.56,-1.5662552763270639,0.8653188362427366,0.002051118346097255,-0.002193731067996638,-0.03694470629326644,-0.02996035855568683
0.5666666666666667,-1.5534759441389832,0.7506402631893321,0.0009123986299019087,-0.0032738165767073235,-0.030645797705498527,-0.024168669712346765
0.5733333333333334,-1.540818258385937,0.6250561431963315,-0.0008603681084530662,-0.004319403373460953,-0.02308836566311617,-0.016077788603693095
0.58,-1.5285190491686245,0.4747711862949797,-0.000705035926491931,-0.004790511704138601,-0.021966236765668595,-0.016307964621886474
0.5866666666666667,-1.515863165154942,0.3655224544057364,-0.0004669303687533772,-0.005271065473073081,-0.020244648173859844,-0.016317131731361945
0.5933333333333334,-1.5022245039513689,0.3682662873399406,-0.00013183278749472825,-0.005814466547285957,-0.016491177239721985,-0.01518950665555066
0.6,-1.4900492053598575,0.3613692600262312,0.000266013037048654,-0.006283918493410736,-0.006180353287008725,-0.009918876926586738
0.6066666666666667,-1.47840356245303,0.3509827787703044,0.0006865702275144492,-0.006726604977751512,0.0065038668930933186,-0.0031487104812081314
0.6133333333333333,-1.4708161046397545,0.28608816410027516,0.0011271950440704924,-0.006930663581933455,0.010522530281990496,0.0019108400018644908
0.62,-1.4635131921755944,0.21737163507828475,0.0015692269304225575,-0.0071179904570534604,0.01393359598236624,0.006850448243522317
0.6266666666666667,-1.4559767081720945,0.15422815969914005,0.0021574883524504377,-0.007386417719454142,-0.08571974022651344,0.14261393281394202
0.6333333333333333,-1.445050659110107,0.17196023940793514,0.0048678170693472415,-0.008831765079796359,-1.6810325924563465,2.1768794406740306
0.64,-1.433717568017692,0.19806589119511833,0.006912648851261254,-0.00994283977170927,-2.725095396729029,3.5465531199104725
0.6466666666666666,-1.4200067388159492,0.2730858072440837,0.005069976872722244,-0.009101258955795971,-0.5490282173246297,1.034010222135131
0.6533333333333333,-1.4057405004599102,0.37536682659240594,0.004642764906627286,-0.00901144129128854,0.2381080787947873,0.07392547750342747
0.66,-1.3910933786278095,0.5043627675516554,0.0050862731751384034,-0.009368627507621479,0.17512791256310445,0.0740547984641973
0.6666666666666666,-1.376281751437846,0.6772570984343987,0.005502516361312492,-0.009642351132124026,0.1580392950098293,0.06759427699253617
0.6733333333333333,-1.3621936172911118,0.9369719605921083,0.005748913831109913,-0.009734923658166307,0.14881134836973595,0.06357422246952207
0.68,-1.3482027454312133,1.216429365363473,0.005880528813973038,-0.009709625162453817,0.14266193111072392,0.06061342190770941
0.6866666666666666,-1.3338600630072095,1.4770443196477858,0.005828423598647939,-0.009501560506026786,0.1385457734083348,0.058583575455750915
0.6933333333333334,-1.3183062157801066,1.667734085452658,0.0055375480580806356,-0.009087845825230376,0.13480593622499476,0.05677184840253048
0.7,-1.3020203051122716,1.826290826744412,0.005039432663541386,-0.008531488593220133,0.13099186652528416,0.054925802730825854
0.7066666666666667,-1.2851040544241545,1.9669000126758243,0.004317965455268134,-0.00785813847532892,0.12678989449884162,0.05286363397343371
0.7133333333333334,-1.2675996892999475,2.099582395422749,0.003376220992562286,-0.0071254417937083835,0.12186836821056889,0.050380193227668284
0.72,-1.2494686859127409,2.2321070839763175,0.00222470043425501,-0.006460757990072825,0.11579219583825336,0.047190859014567266
0.7266666666666667,-1.2308435505690067,2.370823408183128,0.0009539252738915128,-0.006016134411324886,0.1087700915481828,0.04322035850401895
0.7333333333333333,-1.211716388900836,2.522018778501119,-0.0005182547308603665,-0.005993605887257579,0.10261225667084842,0.037443946235956115
0.74,-1.1921019275171263,2.692749314964727,-0.0005801064220217732,-0.007064372160124755,0.08506946649133765,0.03501647159796432
0.7466666666666667,-1.172005865888371,2.8919775629075697,-0.0009449522870062125,-0.007186616895842226,0.07438720679075755,0.03389702133901736
0.7533333333333333,-1.1509053460718077,3.111592549446352,-0.00205473803455781,-0.006359910285625144,0.07172645059790739,0.03201372921186514
0.76,-1.1249086092129257,3.1799455877206513,-0.0033911364253727846,-0.005431298989898561,0.06734385890763621,0.02919817743988892
0.7666666666666667,-1.0966003007203295,3.1288473759110365,-0.004715436289624734,-0.0045240556336711025,0.06100003919644578,0.025595059762364803
0.7733333333333333,-1.0690649056021446,3.0534508785137047,-0.005766937548876696,-0.003733780212436394,0.053459981123871854,0.021784911747472588
0.78,-1.0424054736679234,2.95288132921466,-0.006495168528562039,-0.0030490993092794406,0.045390730823700216,0.01808557748390622
0.7866666666666666,-1.0168168230925385,2.8216868245055915,-0.006872111197544794,-0.0024754779171148183,0.03741067790529068,0.014747943659243664
0.7933333333333333,-0.9927571927309605,2.6413739061472263,-0.006885429100621654,-0.002031701701086625,0.030209662859910003,0.012020146848920502
0.8,-0.9708854335349968,2.3858989216029127,-0.006657811615843331,-0.0017058851758173306,0.024199622448284042,0.009932041480187514
0.8066666666666666,-0.9511929584499995,2.059701933031341,-0.00628076263376903,-0.0014779022210464905,0.019354652047288267,0.008389768307117474
0.8133333333333334,-0.9289815627953814,1.8896514866372143,-0.005677298844296462,-0.0013037334036732897,0.014668389627702894,0.007060004182717275
0.82,-0.9055116633078576,1.789289019262532,-0.0048773896511506935,-0.0012145642379220666,0.01058417849060125,0.006078693321487473
0.8266666666666667,-0.881131801452097,1.7250378753848534,-0.0038976216709359197,-0.0012317295933306565,0.007199443725898405,0.00547271769070587
0.8333333333333334,-0.8559854849533308,1.6826366119356597,-0.002716982033282888,-0.0013880717327928237,0.004487030004929608,0.005263155410944698
0.84,-0.8301871974729981,1.6543718735083808,-0.001220630683701228,-0.0017638010627469421,0.0023569264014586663,0.005541012541587603
0.8466666666666667,-0.8037487485129414,1.63665465957974,0.0014910577380036275,-0.0028785475940496614,0.0006320804377285447,0.007101150626107831
0.8533333333333334,-0.7766641968694318,1.6263056010727348,0.0010933239374381109,-0.002183804053513215,-0.0002008251995269551,0.006172374504990739
0.86,-0.7490662868042525,1.621105481354719,-0.004005933016476847,0.0012110676672209316,-0.00011380091702481443,0.0012212606937489936
0.8666666666666667,-0.7208259350582223,1.620555082582754,-0.003522299934509821,0.0013105783808329623,-0.0006151094990836162,0.0012002218999790269
0.8733333333333333,-0.6919761695397009,1.6237814940184283,-0.003128155910790141,0.0014072796186452342,-0.0009449238203861767,0.0012123686620842823
0.88,-0.6625826901093913,1.6299163056912869,-0.002812164221215973,0.0015040223159694705,-0.0011775815347531268,0.0012435075874695555
0.8866666666666667,-0.6325169423085272,1.6393948414454602,-0.0025859358505337902,0.001603549952597846,-0.0013417529939948067,0.0012915236798226428
0.8933333333333333,-0.6018639553914348,1.6516104146838866,-0.0024405463002599515,0.0017079859732299092,-0.0014736015323707945,0.0013537743211057148
0.9,-0.5706064622965318,1.6661501636099143,-0.002381894292526978,0.0018203736858781704,-0.0015948702964621467,0.0014333127625986428
0.9066666666666666,-0.5386648216454671,1.6838640186584521,-0.0024111173345777452,0.0019439936807071994,-0.001723579923408178,0.0015345863742313333
0.9133333333333333,-0.5060275027768292,1.7041748668374506,-0.002541131336853822,0.002085453403689753,-0.0018780209560035105,0.0016671633880909376
