# n,energy,berry,bcd_x,bcd_y,qmd_x,qmd_y
0.00000007407407407407407,-3.1228525889288674,0.000000008063443556118838,0,0,0,0
0.006666666666666667,-3.075291698847059,0.0007542383305368568,0.00000000000000000120107969980979,-0.0000000000000000022122615650384532,-0.0000000000000000016575072069744796,0.0000000000000000011062355691462138
0.013333333333333334,-3.028391244607813,0.0015742253735317438,-0.0000000000000000014035546340446285,0.0000000000000000032799049971497843,-0.00000000000000000041476861093249116,-0.0000000000000000006172305230737208
0.02,-2.9821724570938413,0.0024796633201875327,0.00000000000000000007941404675836014,0.0000000000000000066606933736850554,-0.0000000000000000019431669309930323,-0.0000000000000000014414702837037654
0.02666666666666667,-2.937434293922277,0.003459093700945846,0.0000000000000000019642117660317297,0.000000000000000000024620797026068168,-0.000000000000000008264243107093026,0.000000000000000002889169344760405
0.03333333333333333,-2.9087983575324166,0.0038080819955984687,0.00000000000000000011833760960952895,-0.0000000000000000021147830554064256,0.0000000000000000059985899809622565,0.000000000000000003438286801310861
0.04,-2.8858001745967745,0.003930468440447459,0.0000000000000000006206911300374246,0.000000000000000007352125378840562,0.000000000000000015946845599717976,0.000000000000000004364701906874213
0.04666666666666667,-2.8629700250885506,0.004080981476002858,0.000000000000000009603764982063683,0.00000000000000000717606070422459,-0.0000000000000000023227578073232817,0.000000000000000013966427185783366
0.05333333333333334,-2.840321112826379,0.004263009539243326,0.0000000000000000019835930618125855,-0.000000000000000006112996467002171,0.000000000000000021117588795005977,0.00000000000000000015735739754869326
0.06,-2.8178552129318177,0.004480605737708138,-0.000000000000000005565683965060018,0.000000000000000049082716243459374,-0.000000000000000011199746845132116,-0.0000000000000000014472874709648022
0.06666666666666667,-2.795580045246157,0.004737728186324152,-0.000006107400226153462,0.0000030316931645234358,0.000008243256395472132,-0.000006150336388684589
0.07333333333333333,-2.7734708269936847,0.005034891724244112,-0.00006875157672037218,0.00003325876030909831,0.00009345555222807579,-0.00006716270842828224
0.08,-2.7515282416354,0.005374368911620116,-0.00006106136604146608,0.00002431561444871854,0.0000863508460183791,-0.00004706865650647046
0.08666666666666667,-2.7297765774177205,0.005761373313096954,-0.00006402533111726251,0.000021621460123209484,0.0000900615475325211,-0.00003947306335091013
0.09333333333333334,-2.708203273279691,0.006200022782818748,-0.00007020830018665887,0.00002047138761336098,0.00009502782096006474,-0.00003469143785165195
0.1,-2.6868070895657827,0.006693868897707786,-0.00007827225217794912,0.00001992886789132704,0.000098727024713079,-0.000030849723968004024
0.10666666666666667,-2.665582783408137,0.0072465582680678415,-0.0000878397832412645,0.000019651346685389586,0.00009942120415279232,-0.00002736890953295039
0.11333333333333333,-2.644540041682599,0.007865788736455492,-0.00009875874048275015,0.00001946973768308423,0.00009522057410592754,-0.000024090855961171576
0.12,-2.623684362663499,0.008554437504628474,-0.0001109780570774621,0.00001927893643123501,0.00008383300163477127,-0.00002110041190598468
0.12666666666666668,-2.6030030720796935,0.00931849937609807,-0.00007651843269645774,-0.000010482788104163092,0.00009781200309092027,-0.00011751359868385841
0.13333333333333333,-2.5825148432791756,0.010170723615279308,-0.0000689855987481869,-0.000027596610333370376,0.00006405536470396791,-0.0001763465630951651
0.14,-2.56222826832565,0.01111805154219602,-0.00009947727642373816,-0.00002408806222465506,-0.000023444032176022762,-0.00016584102009560144
0.14666666666666667,-2.5421212778154354,0.012173566154584807,-0.00011650602784931903,-0.00002960126791828695,-0.00012160506781435146,-0.0001807430247905763
0.15333333333333332,-2.522224400189261,0.013352493320468308,-0.0001309950592296214,-0.000038130497413144124,-0.00024918942476309837,-0.00020302631324619803
0.16,-2.502546115843729,0.014674858786618979,-0.0001442455628973359,-0.00004899360379254738,-0.00041639710833236136,-0.00023106152191225152
0.16666666666666666,-2.48306335085535,0.016168615327831686,-0.00015641477073016118,-0.00006209865058242344,-0.0006340257360840664,-0.00026513100977842454
0.17333333333333334,-2.4637929977645414,0.017865562641681876,-0.00016724621989974028,-0.00007746168622011165,-0.0009137602768303771,-0.0003060790952818918
0.18,-2.4447744377784217,0.01981138680097277,-0.00017622445058353936,-0.00009511738466720903,-0.0012679265845135178,-0.0003550658491621194
0.18666666666666668,-2.4260109727068917,0.022075156477635794,-0.00018269312794277917,-0.00011511020101222446,-0.0017100728969358951,-0.0004135039698098468
0.19333333333333333,-2.4075137603589645,0.024751646819723784,-0.00018590049015570817,-0.0001374015290609542,-0.0022537988787226576,-0.00048277280163138147
0.2,-2.3893297956292567,0.027954566518105944,-0.00018505508983792898,-0.000161836476605606,-0.002910581045823735,-0.0005639701620355595
0.20666666666666667,-2.3714849474856514,0.03195085909936869,-0.00017881275240000684,-0.00018839404927194033,-0.003703903907284492,-0.0006592605553505164
0.21333333333333335,-2.354118499668013,0.03723151564667804,-0.00016613365742671057,-0.00021647543622697521,-0.0046392396812213275,-0.0007682006884931451
0.22,-2.337328355591243,0.04445067498705994,-0.00014703865425129872,-0.00024520843204324717,-0.0056969397038492305,-0.000887115286366866
0.22666666666666666,-2.3214935396738077,0.055542064507744064,-0.00012229070676113307,-0.0002732729381172882,-0.00683302595320128,-0.0010092681485584691
0.23333333333333334,-2.306464885931041,0.07020230353489464,-0.00009269743583972067,-0.0003003747891357656,-0.008027409598212408,-0.0011312763081575093
0.24,-2.291902720054739,0.0876528309961287,-0.000056239506464809125,-0.00032658084754491265,-0.009316692855671193,-0.0012514793861647803
0.24666666666666667,-2.2752096085631504,0.09640329167989438,-0.000005594620669302006,-0.00035526020385113913,-0.010911073388383187,-0.0013764195623920963
0.25333333333333335,-2.257170769746488,0.09915300845990935,0.00005796243741426487,-0.0003834709785073872,-0.01270710229531184,-0.0014764751752985438
0.26,-2.2382220313334145,0.09693856992887742,0.00013302810175821463,-0.00040813561835524207,-0.014584729964684547,-0.001505724317309337
0.26666666666666666,-2.218628497456127,0.08980170806346817,0.00021574374853604279,-0.0004260733538710591,-0.016359611508760953,-0.0013960410117514193
0.2733333333333333,-2.1986615085869103,0.07739491354445811,0.0002989959628077848,-0.00043440982558345416,-0.017767292492738156,-0.0010561299430356236
0.28,-2.17873015542846,0.058953385639226,0.00037259833179778247,-0.0004316662828451668,-0.018490968270622982,-0.00038777030592096544
0.2866666666666667,-2.160035913922139,0.03253012166574025,0.00042461133690830055,-0.00041973462337274487,-0.018290806532385545,0.0006306603998374643
0.29333333333333333,-2.14223737195924,-0.00045594329930258564,0.0004519138551430855,-0.00040211152647303625,-0.017098518482457477,0.0020278345728680872
0.3,-2.120640461464992,-0.03445546499562626,0.00044354642917916666,-0.0003775938520039458,-0.013905118688702344,0.004446588390461829
0.30666666666666664,-2.098336776343706,-0.07377710814019003,0.0003804419753905004,-0.0003562546457540688,-0.008284399569885543,0.007880725713921188
0.31333333333333335,-2.0795386021095523,-0.11761374702972122,0.0002833933210171422,-0.0003390589282351945,-0.0013757832363207154,0.011612953191245638
0.32,-2.0598768506833482,-0.15752622707803032,0.00014516669598627134,-0.000290427630289651,0.008735102327759592,0.016522454388099683
0.32666666666666666,-2.039165388186697,-0.19174699563482975,0.000011451568518455807,-0.00012835794016213418,0.022271336230173692,0.02234724229082631
0.3333333333333333,-2.016245043145493,-0.2052754492629056,0.00018883896796115606,0.000011144364613122362,0.0242468810868069,0.025166095317597434
0.34,-1.9915457400979018,-0.1944990074039699,0.00050311097798106,-0.000013756455825505517,0.013121696357948874,0.0240025319316703
0.3466666666666667,-1.966687406924151,-0.17499640340636172,0.0005085448401004586,0.00003569053303200543,0.013561370371595022,0.024224708096447674
0.35333333333333333,-1.9478085418182618,-0.14423721994499739,0.0005244275283483045,0.000030854890481592184,0.014470181195861924,0.0246215945893607
0.36,-1.9314421791620442,-0.11283896565571463,0.0005289437728205122,0.00001872349405061961,0.016076496121811085,0.025241544530627213
0.36666666666666664,-1.915872044704553,-0.08270020338070398,0.0004606133336544625,0.0000841584926693004,0.02136596296902005,0.02964352825505298
0.37333333333333335,-1.9006265721159235,-0.053998771120691805,0.0003257230035440113,0.00023278849331785967,0.030778370290705764,0.03821039876044363
0.38,-1.885809152931471,-0.026998740562175844,0.00038581590751606096,0.0002205232776624281,0.03719264957426964,0.04141763135520259
0.38666666666666666,-1.8713271443814508,-0.00145603844467437,0.0003884670876066441,0.00021722506301271994,0.044540705687794044,0.045298678919213506
0.3933333333333333,-1.857127115400963,0.022728306335391545,0.00036582690878234205,0.00021790679986381702,0.052517784028665346,0.04958209635761438
0.4,-1.8432726787858038,0.04512278920210387,0.00033378839764093505,0.00022012454697703025,0.06111928905049417,0.05420454791257128
0.4066666666666667,-1.8298528133068057,0.06360388213151388,0.0003129967252706484,0.00023826059853345095,0.06986998904103588,0.059156569962173194
0.41333333333333333,-1.8167036811088568,0.07823197595379258,0.00031361228995392296,0.00028295441499059926,0.07691943613067831,0.06377551993316917
0.42,-1.803958745087148,0.0862501872790398,0.00035491481026008636,0.00037738233686290573,0.08034169613899358,0.06757094324673717
0.4266666666666667,-1.791958035456168,0.06519798360394305,0.00006720570032746505,0.0010674576811743788,0.07924098503088811,0.08685206927711238
0.43333333333333335,-1.7802376088285305,0.03319757475067551,-0.00034441243649094473,0.001981859723079791,0.07643687836420773,0.11196526377536992
0.44,-1.76798677151419,-0.011116676987543428,-0.001306578626625462,0.0033277341722981503,-6.378623403640255,14.640656681500614
0.44666666666666666,-1.7557959831231733,-0.05513354485319063,-0.0017130287326445359,0.00408317506823392,-8.690045411437088,19.619064263415208
0.4533333333333333,-1.7437369157894045,-0.09831244860926802,-0.0009839952469781598,0.003635135825511893,-2.4898752550625023,4.98694490861844
0.46,-1.7325889157208818,-0.14042569940875044,-0.0006974158536293233,0.003633842096724449,-0.23662631437478962,-0.17922866344273042
0.4666666666666667,-1.7219454283517592,-0.1819488341210191,-0.000655849882440168,0.003879938208158078,-0.1690248585702278,-0.10353915755649105
0.47333333333333333,-1.7118280932436123,-0.2176645845203702,-0.0005460454307673159,0.004278620925339895,-0.15753287264288254,-0.08706173962259127
0.48,-1.7019032294952166,-0.25125594006635044,-0.0004112787122751374,0.004733121233106129,-0.16656624935898967,-0.09224465069834524
0.4866666666666667,-1.6922606670534994,-0.28709563470127386,-0.00032204992105668213,0.005089273000240705,-0.16757295351446932,-0.09379543303261074
0.49333333333333335,-1.6827495326260786,-0.32398206463261253,-0.0002540217378948275,0.005399637684218477,-0.1648427651685918,-0.09365524385215293
0.5,-1.674744169045937,-0.3887110769796668,-0.00020174490510526023,0.005636485607816422,-0.1619453085700424,-0.09325482645400679
0.5066666666666667,-1.6680043920061467,-0.4768415236270474,-0.00016270693735252327,0.00581154337084973,-0.15890726454440066,-0.0926356896336318
0.5133333333333333,-1.6612646149663564,-0.5649719702744266,-0.00012366896959978694,0.005986601133883035,-0.15586922051875898,-0.09201655281325681
0.52,-1.6539062894071703,-0.6403659571736837,-0.00007929571132964122,0.00615667757945296,-0.15254033920280666,-0.09133073606513283
0.5266666666666666,-1.64598785075222,-0.7042267212538703,-0.000030091197313502174,0.0063222433018412525,-0.14894809653373267,-0.09058453876546652
0.5333333333333333,-1.6380694120972699,-0.7680874853340579,0.000019113316702637658,0.006487809024229549,-0.14535585386465863,-0.08983834146580019
0.54,-1.6284036571164815,-0.7942075686690783,0.00009165333480258064,0.006640627236169977,-0.14115281531336205,-0.08899659177728889
0.5466666666666666,-1.6186566316089102,-0.8185722715043233,0.00016527872518548971,0.006792852540647712,-0.1369213676512645,-0.08815039779162202
0.5533333333333333,-1.6083085508316872,-0.8239456767668433,0.00026005328737228525,0.006896555592799905,-0.13255964012538454,-0.08728111375555335
0.56,-1.5978693222982467,-0.8264391236481381,0.00035803504139836015,0.006992900429078446,-0.1281781561513647,-0.08640832820075364
0.5666666666666667,-1.5871162615881713,-0.8110499661638618,0.00047952816148205126,0.00701172197895304,-0.12369347002066464,-0.08545660284699201
0.5733333333333334,-1.5763328140282504,-0.7933931091888626,0.000603825566918393,0.0070201141914211455,-0.11919509508813626,-0.08449216670178143
0.58,-1.5654624137110846,-0.7547452408079718,0.0007504217220334027,0.006919606255296393,-0.11455758432155644,-0.08335430923012951
0.5866666666666667,-1.5546348998933255,-0.7118914254672677,0.0008990173222856639,0.006797584036647676,-0.1099051906731539,-0.0821772028570538
0.5933333333333334,-1.544031169808757,-0.647090784778573,0.0010580461195419232,0.006563299298867763,-0.10517513746053014,-0.08079529390494448
0.6,-1.5336033923260537,-0.5729698477272803,0.0012152515440541519,0.006295932812237806,-0.10046502295900585,-0.07935482484496786
0.6066666666666667,-1.5237260720656984,-0.469690919303083,0.0013667526556699287,0.005925072047095304,-0.09581728552615014,-0.07773115397964478
0.6133333333333333,-1.5142025689170624,-0.35353058877907695,0.001510456850718257,0.005542025610917906,-0.09130333092122077,-0.07610971732568278
0.62,-1.5062637365153972,-0.179677228688536,0.001619240333365252,0.005104402174980898,-0.08738856082953292,-0.0744982872238889
0.6266666666666667,-1.4983249041137323,-0.005823868597995108,0.001728023816012247,0.004666778739043891,-0.08347379073784507,-0.07288685712209501
0.6333333333333333,-1.4891600510519272,0.15633524639087917,0.0018260330785096722,0.00404495013512998,-0.07888715583284468,-0.07080211799236116
0.64,-1.4792434115268955,0.3113235399972876,0.001917435671867169,0.0033101683353657253,-0.07388853857861635,-0.0684271493977442
0.6466666666666666,-1.4676747522886424,0.42283862895085655,0.0019650164090285072,0.0023083757146319752,-0.06813653245853937,-0.06546997923110058
0.6533333333333333,-1.4548514468621805,0.5013374711427485,0.0019793161118313012,0.0011037985229523342,-0.06181235612692629,-0.06207064909671188
0.66,-1.4387537426267274,0.45849568421233877,0.0018141307473026503,-0.0007682102489725113,-0.054452202047576205,-0.057724359245303086
0.6666666666666666,-1.4229891700480328,0.373922059485286,0.00006723552559148235,-0.0025482537160526246,-0.040240738811265366,-0.046483876748780906
0.6733333333333333,-1.4064246668859959,0.3065230975855657,-0.0012552426326808252,-0.00405885935590957,-0.028128169974584144,-0.03793743082432453
0.68,-1.3875659103151794,0.3486592593950015,-0.0011310158371703775,-0.005488692800954949,-0.02265971811539771,-0.03709188045372763
0.6866666666666666,-1.3662893534224514,0.5668656050371069,-0.0011538635749866201,-0.007683405883359767,-0.014784741018573893,-0.03846824424778304
0.6933333333333334,-1.345334833672049,0.8219487315769759,-0.00032136442049972877,-0.01071415400305442,-0.013287267292055295,-0.03809190869057785
0.7,-1.3248637455456567,1.1220032314704975,0.0019497116065049812,-0.013751467106516865,-0.021435754435302292,-0.03112143319511103
0.7066666666666667,-1.3050309345907067,1.4777220799873338,0.0029064460554423842,-0.015215598401730859,-0.011686819771117676,-0.02590054935772506
0.7133333333333334,-1.2848188458676701,1.872215205051033,0.0036866699162610974,-0.016236799990167524,-0.0013915710670247957,-0.01950819471843714
0.72,-1.263465201227539,2.278216056978177,0.004097169917271731,-0.016605636714173082,0.008969730871445987,-0.012204153996140716
0.7266666666666667,-1.2422577583782877,2.61911129552803,0.003973633191599243,-0.016205044152503498,0.017712788121605316,-0.0052758029408593666
0.7333333333333333,-1.2190570086851553,2.771619383232266,0.003253115220283074,-0.015011609625442048,0.024665406213841824,0.0010442985709612023
0.74,-1.1954019528689033,2.8401454812895586,0.0020614189516238854,-0.013251458797660653,0.02867998282190873,0.005637062257077543
0.7466666666666667,-1.171740672098811,2.8554492671900498,0.0006421130130357647,-0.011235986935526326,0.029857200121817758,0.008338086931445405
0.7533333333333333,-1.148356665256004,2.8287349506753525,-0.0007565635689948039,-0.009237810633988642,0.028740724177730326,0.009403592564861367
0.76,-1.1254536845600367,2.7638673464149344,-0.0019484031499828183,-0.007441326738400487,0.02616176374983055,0.009359780116694978
0.7666666666666667,-1.1033329197116823,2.661278825114699,-0.002861494500542187,-0.005915676869232167,0.022951827005674278,0.008756446467324534
0.7733333333333333,-1.082479608800703,2.505415214648906,-0.003484747300029932,-0.004683277821665361,0.01966077778587402,0.007933453715252748
0.78,-1.0632839301706936,2.2861250141580136,-0.003859255754086583,-0.0037212055106957487,0.01663538375964055,0.00710427116296835
0.7866666666666666,-1.0448377347499953,2.050433391314243,-0.00405331157682276,-0.002941863622133572,0.013867129645238906,0.006324866400184471
0.7933333333333333,-1.0239629868040472,1.933662485365411,-0.004092833263722487,-0.0022227210825903998,0.011023078355469094,0.005530931919394583
0.8,-1.0019916722269515,1.8607056389195977,-0.003972841912025951,-0.001622685977037856,0.008418382075723794,0.004830965981481469
0.8066666666666666,-0.9792262824095288,1.8129131272234484,-0.0037169264274725554,-0.0011426920180497568,0.006149638907803687,0.00426091873086333
0.8133333333333334,-0.9557502250324761,1.781379060515304,-0.003353449422723978,-0.0007729400790350282,0.004239949749453864,0.0038291466848608055
0.82,-0.931636176985993,1.760474331090952,-0.0029096087495639276,-0.0005028003175116768,0.002678717849025044,0.003531862031370166
0.8266666666666667,-0.9069297119224728,1.7473534463924711,-0.002407658581613072,-0.0003225849979525406,0.0014320517244875981,0.0033588685664086722
0.8333333333333334,-0.8816305922200386,1.740493629073281,-0.0018593134620360275,-0.00023427459202974334,0.00047985154247152245,0.003312399505343274
0.84,-0.8557636709526699,1.7380254125084518,-0.0012685572098669632,-0.00023188641712899153,-0.00024925216877089363,0.00338427804157944
0.8466666666666667,-0.8293466926260159,1.7386046703776403,-0.0006179511124792736,-0.0003196037210095276,-0.0008181821495363152,0.003583628207635984
0.8533333333333334,-0.8024083833469096,1.7421860826088138,0.00016141368439642374,-0.0005338774339621665,-0.0012707316846587177,0.003973263405836115
0.86,-0.77486517342725,1.7481965274284237,0.0014006187508302413,-0.0010559548853134382,-0.001671912415099623,0.004857664808274807
0.8666666666666667,-0.7468166454440855,1.755815918483305,0.005042464430042491,-0.0029590612340224236,-0.002303629870812358,0.00794752447363565
0.8733333333333333,-0.718149862578762,1.7654169198270013,-0.0025492951577002375,0.0016988067978395995,-0.0013911530186033203,0.0013270349367215353
0.88,-0.6889527639717596,1.7764885051851604,-0.002441336103079158,0.0018073553308665259,-0.0015426072786092857,0.001397702397564466
0.8866666666666667,-0.6592157702070816,1.7888754521354024,-0.0023950793663925236,0.0019240273701008827,-0.0016851802822362314,0.0014844474325160627
0.8933333333333333,-0.6288065489110397,1.802938197473009,-0.002424028999380548,0.0020529612997026558,-0.0018326971872867366,0.0015936782883509211
0.9,-0.5978849721005849,1.8182780252241417,-0.0025269903755956234,0.0021966609109537153,-0.001997270382888869,0.001728484135607938
