# n,energy,berry,bcd_x,bcd_y,qmd_x,qmd_y
0.0000015,-3.049995616726221,-0.00000000000000002215550892191847,0,0,0,0
0.006688963210702341,-3.001904256228597,-0.000004681828413693666,0.000000000000000000022477223335288353,0.0000000000000000000016252660710384277,0.000000000000000000004147822241193993,0.000000000000000000003458399380355192
0.013377926421404682,-2.9545999159422234,-0.00003466650054990678,0.000000000000000000006059657988419612,-0.00000000000000000001605702337093558,-0.000000000000000000021040140932311372,0.000000000000000000010489005806567588
0.020066889632107024,-2.9286013807611733,-0.00007221767732745029,0.0000000000000000001264743940834019,0.00000000000000000007714591751451402,-0.00000000000000000004845520943901701,-0.0000000000000000000761436818335435
0.026755852842809364,-2.905018927773305,-0.00012359675703578813,-0.00000000000000000009936307302897063,0.0000000000000000006956435289996991,-0.00000000000000000006336210255405083,-0.0000000000000000001487561159514752
0.033444816053511704,-2.8816543355821858,-0.00019156354475668302,-0.00000000000000000028441761285459704,0.0000000000000000005126907334362616,-0.00000000000000000011866663873232276,0.0000000000000000001771015408475905
0.04013377926421405,-2.858547945317986,-0.0002773395885262026,-0.00000000000000000008991040011258991,0.0000000000000000002957737140902473,-0.0000000000000000005456641145413331,-0.0000000000000000002276941943895538
0.046822742474916385,-2.8355873335487787,-0.0003829561683486273,-0.0000000000000000004506222356569059,-0.000000000000000003675119092351408,-0.0000000000000000005248258857039228,-0.0000000000000000005668017301476906
0.05351170568561873,-2.81282123523088,-0.0005082596803853909,0.0000000000000000007323186563659321,0.000000000000000002469829982341766,-0.0000000000000000013994076345312462,-0.0000000000000000005102096653258074
0.06020066889632107,-2.7902669873440304,-0.0006570268195198254,0.0000000000000000010440850882453752,0.000000000000000002848421373791072,-0.00000000000000000003285971590908381,-0.0000000000000000021403631115665942
0.06688963210702341,-2.7679295336368663,-0.0008306776090862012,-0.000000000000000003541110168787687,0.0000000000000000010348882093436265,-0.0000000000000000002706766237422083,0.0000000000000000023260178038260557
0.07357859531772576,-2.745746927880982,-0.0010321903071739279,0.00000000000000000011444148256729672,0.0000000000000000032660076147203964,-0.0000000000000000016575838822384745,0.0000000000000000008511783286932227
0.0802675585284281,-2.7237815318423024,-0.0012603722959377795,0.0000000000000000006628233793483384,-0.0000000000000000028267757561193147,-0.000000000000000004185845138755721,0.000000000000000002345689455559793
0.08695652173913043,-2.701945911540315,-0.0015181976914470222,0.0000000000000000025339788837650777,-0.000000000000000009526937951985642,-0.000000000000000002772772573508928,0.0000000000000000005674373329028432
0.09364548494983277,-2.6803227158459206,-0.0018088930923001562,-0.000000000000000002787134761559658,-0.000000000000000003041420239399242,-0.000000000000000006281453514937426,-0.00000000000000000344764416499706
0.10033444816053512,-2.658967642347785,-0.002135173043111094,0.00000000000000000000853704378732387,0.0000000000000000014794277539783493,-0.000000000000000004304874453447889,0.000000000000000003836857451828817
0.10702341137123746,-2.6377392991022623,-0.0024969050703724806,0.000000000000000005376159628444017,-0.0000000000000000052919763118623794,-0.0000000000000000016456375102034125,-0.00000000000000000021710764734948767
0.11371237458193979,-2.616667552872308,-0.0028964880077466232,-0.000000000000000002700983990381613,-0.000000000000000004070755564800641,0.0000000000000000022421678309495398,0.0000000000000000007022317056813717
0.12040133779264214,-2.5958701487143654,-0.0033431170822814543,-0.0000000000000000021294298082697952,0.000000000000000002575057683627736,0.000000000000000010984125641480176,0.000000000000000009290046895511765
0.12709030100334448,-2.5751744781654278,-0.003840524251782825,0.00000000000000002018317092695393,-0.000000000000000012740518476642761,0.0000000000000000010035614199891719,0.000000000000000022986090157069112
0.13377926421404682,-2.5546891583124056,-0.0043818576313407,0.00000000000000001504786563800938,0.000000000000000025010167443376784,-0.000000000000000015747181012024456,0.000000000000000003022961751556803
0.14046822742474915,-2.5343873161271975,-0.004973359259503153,0.000000000000000011925891208047952,-0.00000000000000001432226989355622,0.00000000000000001600442124172366,-0.000000000000000009410482947003928
0.14715719063545152,-2.514328898001539,-0.005643392530326323,0.000000000000000004249273002617193,0.00000000000000007414196752463913,0.000000000000000007251620583618323,-0.00000000000000002133431158682707
0.15384615384615385,-2.494325923437141,-0.006356683421737325,0.0000000000000000004904705329424793,0.000000000000000004276808478434486,0.000000000000000011941132118451838,0.00000000000000003623887744408945
0.1605351170568562,-2.4744418250671227,-0.0071459480947334035,-0.0000000000000000027520602456168985,-0.00000000000000004914245491194166,0.00000000000000004688970703988288,0.000000000000000019681748008820836
0.16722408026755853,-2.455004066710302,-0.00801955107038595,-0.000000000000000011112008088492295,-0.00000000000000006843248089963136,0.0000000000000000016715440814794053,-0.000000000000000014282626294595598
0.17391304347826086,-2.4356217352676253,-0.008973283339825498,-0.00000000000000002872582889723667,0.000000000000000004313374385605149,-0.000000000000000019274298980350354,-0.00000000000000003207187497917293
0.1806020066889632,-2.4163578031225184,-0.009998076546136176,-0.0000000000000000024578623818554304,0.00000000000000008196708067916399,-0.0000000000000000007149069557390334,-0.000000000000000009933060496620763
0.18729096989966554,-2.39746707140797,-0.011109184953312574,0.000000000000000007107553565560687,0.00000000000000010455510472522463,0.00000000000000002729461136464217,-0.000000000000000008825085446641218
0.1939799331103679,-2.3786462544113265,-0.012350564595923397,0.00000000000000007866004886817569,-0.00000000000000005809701988857253,0.000000000000000004687766848451121,-0.000000000000000007643180653368826
0.20066889632107024,-2.3599926056424794,-0.013702463526327825,0.000000000000000017696444485543617,-0.00000000000000002690422760577971,-0.00000000000000003544859013915541,0.000000000000000024125663357627915
0.20735785953177258,-2.3414711078402473,-0.015139924487265272,-0.00000000000000012278427713374407,0.000000000000000018556958813270532,-0.000000000000000011963983628160894,0.000000000000000013222749311431817
0.2140468227424749,-2.323263623366358,-0.016725595840943304,0.000000000000000007728238273798569,0.00000000000000016331596690200586,-0.00000000000000003221251345846701,-0.00000000000000003724996056705302
0.22073578595317725,-2.3051765578716066,-0.0184679465612691,-0.000000000000000011631669640418068,0.00000000000000008838500292560395,-0.00000000000000005730001472785763,0.000000000000000006086194348297402
0.22742474916387959,-2.2872161033212177,-0.020360363516706854,-0.0007874608469975017,-0.000000000000000051112821840183634,-0.000000000000000007427297010907827,-0.00023933932602154614
0.23411371237458195,-2.2695035494145768,-0.02240386529617765,-0.001680609403500703,0.00000000000000003874286100673654,0.000000000000000055420616560036223,-0.0005186938886720177
0.2408026755852843,-2.2519510888752707,-0.024617528511362074,-0.0007730760205885884,0.00000000000000010652297802536256,0.000000000000000006140988604606899,-0.0002655425892211949
0.24749163879598662,-2.234744962991096,-0.02706964976773946,-0.0006296033695173993,0.00000000000000022304306078825754,-0.00000000000000011751027159009646,-0.00023478021749626018
0.25418060200668896,-2.217596708419658,-0.02976033438401424,-0.0005780939182236554,-0.0000000000000001285191838687726,0.000000000000000006654974977910451,-0.00023022176970600132
0.2608695652173913,-2.2006322281159485,-0.03271337418711641,-0.0005516377626830962,-0.0000000000000004194910394105259,-0.000000000000000030575569691610026,-0.00023236726390213157
0.26755852842809363,-2.1838951521230694,-0.035881967248108375,-0.0005380435201860045,0.00000000000000015181480676703602,-0.0000000000000000941495132246987,-0.0002377999408603486
0.27424749163879597,-2.167350287174858,-0.039376829508805986,-0.000532004424855265,0.00000000000000012998722231683466,-0.000000000000000025062699249930173,-0.0002450552392437756
0.2809364548494983,-2.150964775644277,-0.04322289793721231,-0.0005306864944923495,-0.0000000000000005146187968126608,0.00000000000000009131035236404733,-0.00025334658070334267
0.28762541806020064,-2.134739107825458,-0.04736598824524313,-0.0005324214582382508,-0.0000000000000004590899398238751,0.000000000000000035383574179302066,-0.0002621840163500194
0.29431438127090304,-2.1188543764933283,-0.052001846426033706,-0.0005362121333996723,-0.00000000000000022457152674247185,0.0000000000000001834859255972061,-0.00027108046207696554
0.3010033444816054,-2.103223973596399,-0.057083435248543396,-0.0005420505899318799,0.00000000000000032452879093075045,0.00000000000000019375083914794368,-0.0002803225548562578
0.3076923076923077,-2.087777531794036,-0.06267592944208542,-0.0005489785474136411,0.0000000000000006136063041012092,0.00000000000000008810630605387003,-0.0002895987066148053
0.31438127090301005,-2.072501145195826,-0.06881150156990698,-0.0005566900733311736,0.0000000000000006633836498219017,-0.00000000000000007896046329465221,-0.00029881431106587515
0.3210702341137124,-2.0574091623359005,-0.0755369205536712,-0.0005651112851197012,0.0000000000000007836760393528173,-0.00000000000000021918744117646812,-0.0003079434498539042
0.3277591973244147,-2.0426937544521238,-0.08326577276866219,-0.0005744739836971685,0.0000000000000010132088279494655,-0.0000000000000003099700749537254,-0.0003170108426057904
0.33444816053511706,-2.028195428930054,-0.0917498444904049,-0.0005841114371730866,0.0000000000000008984529539075102,-0.00000000000000004330449501408409,-0.00032587755522881233
0.3411371237458194,-2.013897717249448,-0.10104129868727722,-0.000593969189151389,0.0000000000000004940669196586845,0.00000000000000028851354734765004,-0.00033454310707207226
0.34782608695652173,-1.999853489737858,-0.11158714533733176,-0.0006040971568636484,-0.00000000000000007987787197996772,-0.00000000000000009084503151058028,-0.000342962583626803
0.35451505016722407,-1.9861666199704748,-0.12358061478438034,-0.0006145136646599064,-0.00000000000000028473180268761495,-0.0000000000000004382859625111333,-0.0003511596555358518
0.3612040133779264,-1.9727229058030396,-0.13684267299176794,-0.0006250490050210451,-0.00000000000000031598120911678264,-0.00000000000000055591152076536,-0.00035917330001947157
0.36789297658862874,-1.9595826075128693,-0.15191483726415203,-0.0006356705592229131,-0.00000000000000019270045863837196,-0.00000000000000022010031328261974,-0.0003669323518810467
0.3745819397993311,-1.9468580059439293,-0.1699049637022565,-0.0006463091465877124,0.00000000000000021346133547549057,-0.00000000000000009561539228100364,-0.0003743534556225387
0.38127090301003347,-1.934383207448121,-0.18982744679685443,-0.0006569357885540734,0.0000000000000007259749232928179,-0.000000000000000007685335412611358,-0.0003815913821186714
0.3879598662207358,-1.9223949742766124,-0.21372327846620034,-0.0006675131832976702,0.0000000000000013711017799687321,0.00000000000000011496906376419998,-0.00038849583050847383
0.39464882943143814,-1.9108380212673726,-0.24265704615652542,-0.000677860255808573,0.0000000000000008710215433909689,-0.0000000000000002134998624793245,-0.0003950510304699669
0.4013377926421405,-1.8995865887123733,-0.2751597062658026,-0.000688044167202154,-0.0000000000000004403276128839712,-0.0000000000000008615462127712382,-0.00040135882155946666
0.4080267558528428,-1.8892218338343272,-0.322955620232567,-0.0006976777356039283,-0.0000000000000008972108716755949,-0.0000000000000003064976677039652,-0.00040707884789495114
0.41471571906354515,-1.8790525429619962,-0.37412286150022656,-0.000707189983430603,-0.0000000000000011657310630184255,0.0000000000000005137675999841961,-0.00041266930420039616
0.4214046822742475,-1.871972977009163,-0.4845171903555021,0.000960092487988099,-0.0000000000000011713987410064685,0.000000000000000546695381527935,-0.001351233507658823
0.4280936454849498,-1.8653736301010506,-0.6041168614868606,0.0028879899912458737,-0.0000000000000011362126905382535,0.0000000000000004572516040104859,-0.002434804717656917
0.43478260869565216,-1.8587742831929381,-0.7237165326182191,0.004815887494503648,-0.0000000000000011010266400700385,0.0000000000000003678078264930369,-0.0035183759276550103
0.4414715719063545,-1.8502158933979411,-0.8000412569753217,0.01218254980606337,-0.0000000000000003374619969757036,0.00000000000000014899048242549802,-0.0077545567024891494
0.44816053511705684,-1.8413242695775078,-0.8690048945432199,0.020474348316838413,0.0000000000000005500001534613539,-0.00000000000000009183336014964015,-0.01252699770059499
0.45484949832775917,-1.831879986289471,-0.9195736178144458,0.029974128593714695,0.0000000000000005289818756647297,0.00000000000000009966787849212313,-0.018068372436929492
0.46153846153846156,-1.8220969420838158,-0.9588669022088596,0.040214359429278465,-0.00000000000000004890311942788582,0.0000000000000005561692660639572,-0.024081076651938718
0.4682274247491639,-1.812212918238893,-0.9840336338715246,0.049646121342808554,0.00000000000000022600015884694025,0.0000000000000007276619957409471,-0.029444610233430705
0.47491638795986624,-1.8022584152200616,-0.9993406772451477,0.05851360889202653,0.000000000000001096110683476794,0.00000000000000070023170577665,-0.03435505237680458
0.4816053511705686,-1.792543121179305,-0.9966264400854323,0.06607407046554217,0.0000000000000017914031137851583,0.000000000000000018052821258670126,-0.03719629698113021
0.4882943143812709,-1.7829920775907937,-0.9815380708949563,0.0727370757256147,0.0000000000000023666584481447514,-0.000000000000001113702636964714,-0.03861674779122236
0.49498327759197325,-1.7749401165148506,-0.9216851208858796,0.0628557047794721,0.0000000000000027054614887293712,-0.0000000000000014105340095673687,-0.03267148506195322
0.5016722408026756,-1.768313955030359,-0.81925591472841,0.037238732465238455,0.0000000000000028193712489003134,-0.0000000000000009132567122396205,-0.01972058303856557
0.5083612040133779,-1.7616877935458677,-0.7168267085709403,0.011621760151004815,0.000000000000002933281009071255,-0.0000000000000004159794149118722,-0.006769681015177921
0.5150501672240803,-1.7538077467406221,-0.637547291876807,-0.0008370087664713203,0.0000000000000016038131135510674,-0.000000000000000017752631129145338,-0.00047580020400787073
0.5217391304347826,-1.744741438404326,-0.5801691641105541,-0.0008472146064899249,-0.0000000000000010911890612075406,0.0000000000000002867655718891582,-0.0004799181370041221
0.5284280936454849,-1.7351214399733519,-0.5296367847085702,-0.0008581316036460096,-0.0000000000000021514070387783153,0.0000000000000006200077309008488,-0.0004842314537499747
0.5351170568561873,-1.7243369911697224,-0.4935015099513877,-0.0008705442157710349,0.00000000000000022644455708511296,0.0000000000000010136584498309716,-0.0004889556766728034
0.5418060200668896,-1.713017427600944,-0.46196240877100664,-0.0008837262050648278,0.000000000000001996351784040094,0.000000000000002022015899625903,-0.0004938245287145565
0.5484949832775919,-1.7011177457085696,-0.4354060228584175,-0.0008977422767320231,0.000000000000003107186058611864,0.000000000000003696777383540465,-0.0004988501732940566
0.5551839464882943,-1.6886953537052494,-0.4136563212606706,-0.0009126162799977709,0.00000000000000011393464293120026,0.0000000000000026971605728944617,-0.000503914994915899
0.5618729096989966,-1.676003349546526,-0.39387418297943805,-0.0009279426579358104,-0.0000000000000027634916442981335,0.0000000000000015572883631657006,-0.0005089957915266014
0.568561872909699,-1.662808259245615,-0.3769675859554051,-0.0009441284795723443,-0.000000000000001952286936831879,0.0000000000000020829955255297234,-0.0005140998142340399
0.5752508361204013,-1.648901095157335,-0.36238847230876425,-0.000961442054172223,0.000000000000000447163639169909,0.00000000000000015127911832692238,-0.0005192937501953705
0.5819397993311036,-1.6345937947650182,-0.3492773603341697,-0.0009794637453705418,0.0000000000000017811245966177873,-0.0000000000000008657553178527535,-0.0005244812989631685
0.5886287625418061,-1.6200229953289682,-0.33736862810621987,-0.0009980612488844735,-0.0000000000000004683935063330742,0.0000000000000020982880008267877,-0.0005295808757745428
0.5953177257525084,-1.605078280508352,-0.32690530323893524,-0.0010174896364369163,-0.0000000000000001986442540820134,-0.0000000000000009889218034184648,-0.0005345370169107837
0.6020066889632107,-1.5896605970025945,-0.31738132290104565,-0.0010377919728371966,-0.00000000000000042818560368735514,0.000000000000000033078322350138953,-0.0005394432616622442
0.6086956521739131,-1.5737776206693217,-0.30883548179062564,-0.0010589921910148306,-0.000000000000001501153702600412,0.0000000000000020109219102414924,-0.0005442660389927498
0.6153846153846154,-1.5575195073459214,-0.3012241594092238,-0.0010809997570557517,-0.000000000000003428384267178325,0.000000000000001061134176113821,-0.0005489486476199033
0.6220735785953178,-1.5410715713201895,-0.2943672731300287,-0.0011036103068073557,-0.00000000000000540882495515354,0.000000000000000011569942785435434,-0.0005533919838737067
0.6287625418060201,-1.5240833963077298,-0.2880107171782854,-0.0011272921859830634,-0.00000000000000033623975512234144,0.0000000000000017180893910018687,-0.0005576166767145006
0.6354515050167224,-1.506626133626969,-0.282077819475716,-0.0011520241002467304,0.0000000000000014731154726172987,0.0000000000000006181979409814085,-0.0005616615386181089
0.6421404682274248,-1.48895969209498,-0.2770307378866807,-0.0011774346848997474,0.0000000000000004610263392965029,0.0000000000000010986630808909744,-0.0005654226402273353
0.6488294314381271,-1.4709312709916815,-0.27226471015596226,-0.0012037468928993856,0.0000000000000012356138576427794,0.0000000000000027592821764589313,-0.0005688996792133113
0.6555183946488294,-1.4523885087605857,-0.26767729932284295,-0.0012312110483686353,0.000000000000003698984649942746,0.0000000000000011838230878224148,-0.0005720843850704519
0.6622073578595318,-1.4335120656501759,-0.26363158242342005,-0.0012595852837867976,0.0000000000000001442638657174609,-0.0000000000000016766812155560042,-0.0005749079588195472
0.6688963210702341,-1.4144305355672893,-0.26006636867229904,-0.001288668620370515,-0.000000000000007133521099653086,-0.00000000000000019434378300263192,-0.0005773132524121925
0.6755852842809364,-1.3949244908223983,-0.2569733025763312,-0.001318810724983665,-0.0000000000000034280744404793443,0.0000000000000007830856493017467,-0.0005792927271426291
0.6822742474916388,-1.3749363576434304,-0.2537091292008879,-0.0013501995486472854,0.00000000000000105317758214578,0.0000000000000005853377718225482,-0.0005808419223404856
0.6889632107023411,-1.3546784834263397,-0.25110061098780734,-0.0013824674464788694,-0.0000000000000008430950723981016,-0.0000000000000014058688897853534,-0.0005818845441040393
0.6956521739130435,-1.3340170950608952,-0.24833231892286053,-0.001415819366077431,0.0000000000000003085667547004916,-0.0000000000000012924480249322803,-0.0005823804795684063
0.7023411371237458,-1.3130537408600322,-0.24605441179605184,-0.0014501112505779553,-0.0000000000000023070211358200966,-0.00000000000000065830147611844985,-0.0005822899838424273
0.7090301003344481,-1.2916792568183972,-0.24433967204953813,-0.0014855872793877354,-0.0000000000000005940516247855805,-0.0000000000000001689494749809995,-0.000581594623965488
0.7157190635451505,-1.2700488509090713,-0.2427234276047899,-0.0015219518026124586,0.0000000000000021311552193277487,-0.00000000000000012189387543328095,-0.0005802444913832294
