# n,energy,berry,bcd_x,bcd_y,qmd_x,qmd_y
0.00000016666666666666665,-3.014836073714323,0.0000000007582841742536522,0,0,0,0
0.006688963210702341,-2.990740195792879,0.000034171925797655486,0.00007455502956527767,0.00000000005887908809546843,0.00000000003183835986599674,0.000008317213518191048
0.013377926421404682,-2.966950308621094,0.00007032555090240952,0.00020789967576151648,-0.00000000002122751278635015,-0.0000000002481543884016626,0.00002203873338798502
0.020066889632107024,-2.9433333713292025,0.00010849729946481533,0.00038135871180703556,-0.000000000016320709521247595,0.0000000001731467605947868,0.00003961647400015104
0.026755852842809364,-2.9198907638178686,0.0001486380105929868,0.0005861789544084437,-0.0000000002022015468621059,0.00000000040413364290702686,0.00006004972774980898
0.033444816053511704,-2.896639966251952,0.0001907378507964703,0.0008155742776603692,-0.000000000026473941822383915,-0.00000000011090328303877859,0.0000824207883564405
0.04013377926421405,-2.873556074168172,0.0002349332714242974,0.0010645898754427106,0.0000000002377489977396989,-0.0000000001225322670271105,0.00010576137615305885
0.046822742474916385,-2.850655288978838,0.0002811251993010655,0.001323648992468079,0.00000000014810611953206256,-0.0000000001329448286812885,0.00012871881761410464
0.05351170568561873,-2.8279353397455043,0.00032914101195512637,0.001586031933886783,-0.00000000002282506280363933,0.000000000056867721495059844,0.00015002374124563643
0.06020066889632107,-2.805378482757534,0.00037885067541566846,0.0018447483813524173,0.00000000009239555266007495,-0.0000000004784471493789596,0.00016821225148907302
0.06688963210702341,-2.783002268213932,0.0004305432987034328,0.002091808140725684,0.00000000005982345731316032,-0.0000000001772933545181016,0.00018152864650737544
0.07357859531772576,-2.760785621991496,0.0004838523388337071,0.0023189045961227784,0.000000000019916337967849797,-0.0000000006110367629250755,0.00018791787617746493
0.0802675585284281,-2.738771761395251,0.0005391813058020345,0.00251438372402897,0.00000000005683929442311914,-0.00000000009909792341328804,0.0001843252901622944
0.08695652173913043,-2.716907933121217,0.000596000827021061,0.002666470601032953,0.00000000020469156200375533,-0.00000000009433476033060702,0.00016724427107663733
0.09364548494983277,-2.6952412925229736,0.0006542913496080914,0.0027450352389958945,-0.000004090673178741712,0.0001854435041734834,0.00002718394411831845
0.10033444816053512,-2.673740856499488,0.000714560769174124,0.002740058132564787,-0.000012706262001251349,0.0005773950206398255,-0.00025098302260123174
0.10702341137123746,-2.652414046541011,0.0007763437797489594,0.00272024940934351,-0.000006322283066403531,0.00038499289502798707,-0.0002214092325125502
0.11371237458193979,-2.631264746436539,0.0008401036939017757,0.002574281642127736,-0.0000008347914936503464,0.0003690494142281137,-0.0003324148532572943
0.12040133779264214,-2.610288563763424,0.0009057625568491288,0.0022975355789185965,0.000004832941416359319,0.0003711708236595987,-0.0004991313699011736
0.12709030100334448,-2.5894917230765953,0.0009731993280045212,0.001864392621406837,0.000011382074392093931,0.00037349680043054565,-0.0007233507727428398
0.13377926421404682,-2.5688640368854485,0.0010438283662173038,0.0012412702669485482,0.00001917837500455451,0.0003678292032680736,-0.0010158551417064085
0.14046822742474915,-2.5484220785525973,0.0011169163312630456,0.0003871610155493588,0.0000285544454207943,0.0003472210235340364,-0.0013924374085790806
0.14715719063545152,-2.528163949200333,0.00119295470895026,-0.0007493580945948875,0.000039790255785489594,0.0003039245770950794,-0.001874519936169336
0.15384615384615385,-2.5081140451591564,0.001273407900063027,-0.0022305388738819622,0.000053182594864738665,0.00022884061533681144,-0.002490068387891229
0.1605351170568562,-2.4882270729496176,0.0013589048322011988,-0.004139839968569577,0.00006909609094839219,0.00011054922938647992,-0.003279222831538435
0.16722408026755853,-2.4685453266278587,0.0014540777655651957,-0.0065749561844552695,0.00008785828504739697,-0.0000646883539888297,-0.004293528307500004
0.17391304347826086,-2.449064021784348,0.0015587204458208364,-0.009663404681099656,0.0001098409122536361,-0.00031371403957984405,-0.00560613669703013
0.1806020066889632,-2.429778094131906,0.0016751436407418734,-0.01356762413897565,0.00013543881684897335,-0.000656761751826799,-0.007320361613834927
0.18729096989966554,-2.410704160186306,0.0018126097939776585,-0.018488829415034814,0.00016503630683231815,-0.0011173431179888214,-0.009581576896565887
0.1939799331103679,-2.391870740271581,0.001977123591387206,-0.02467363670027805,0.0001989540467181647,-0.001721552275244627,-0.012596508473434227
0.20066889632107024,-2.3732635232166546,0.002177768125897424,-0.032439715496645025,0.00023756075265259305,-0.0024993366567307223,-0.016673248291850833
0.20735785953177258,-2.3549012330555854,0.002425709408753097,-0.042156817394685776,0.0002811145429911152,-0.0034815658558314823,-0.02225861944757465
0.2140468227424749,-2.336819610288497,0.002749254459351827,-0.05422475055886798,0.0003297210971393568,-0.004697446584241753,-0.03000149425468828
0.22073578595317725,-2.319043905457156,0.0031738736872772766,-0.06902418187783588,0.0003833552658089515,-0.006173184610783947,-0.040849357512462506
0.22742474916387959,-2.301603679071908,0.003746525262453176,-0.08676339755999492,0.0004417703391436593,-0.007927988389769004,-0.05615259754186856
0.23411371237458195,-2.2845518049402362,0.004543651620237241,-0.10717428992890461,0.0005043972223592522,-0.009968062569455368,-0.07771523422154396
0.2408026755852843,-2.2679608008405276,0.005638706483568585,-0.12923375777315263,0.0005703545117596428,-0.012282421771197498,-0.10764813889862304
0.24749163879598662,-2.2521139803673758,0.007368091534316794,-0.14846202024629557,0.0006383625560025441,-0.014889764625166786,-0.15254941979323441
0.25418060200668896,-2.237724741561627,0.010810910732481608,-0.15314132139495476,0.0007026862194041431,-0.01755542502859934,-0.21393570038841492
0.2608695652173913,-2.223950490861673,0.013988254356783284,-0.16110377623080127,0.0007655161391496572,-0.020320785277995523,-0.24933832297677003
0.26755852842809363,-2.210543467288256,0.01606662894454546,-0.17999116308667557,0.0008275119352315931,-0.02321712913096498,-0.23788482671900812
0.27424749163879597,-2.1944955009848095,0.01877012506137652,-0.3184713799143367,0.0008996119972360219,-0.027034951666874127,-0.2433250098318672
0.2809364548494983,-2.17676362420134,0.023530697214914513,-0.7468104183476201,0.000973841945974365,-0.03150312239761889,-0.29839111654352735
0.28762541806020064,-2.1574510155550026,0.035149016533356364,-2.499241696309612,0.001041690267790692,-0.03659095978329032,-0.5548242446894934
0.29431438127090304,-2.1369253772815173,-0.5747459006462126,-75.60370368930964,-0.19015496913906252,-2.495553799578401,27.39825814258939
0.3010033444816054,-2.1144661856505644,-0.14983042355888387,-12.369896798611649,0.500293581240247,-9.480706744499754,79.0354948826395
0.3076923076923077,-2.0900995860483937,-0.015136525627936472,4.907604495109224,0.0474235087448589,4.661559703367775,77.73648683051469
0.31438127090301005,-2.0647821629220027,-0.10030963129976853,4.0542521809702325,-0.022176646921044377,-0.9050602183117423,62.895663809924045
0.3210702341137124,-2.0380931737189854,-0.16915510649465945,3.0614036887016227,-0.00038634258252133284,-0.11097077999845448,49.58921415058491
0.3277591973244147,-2.0118933938381507,-0.23353431933256566,2.6057481112469687,0.0003251900374904719,-0.05009453056232598,38.354894206605735
0.33444816053511706,-1.9930874320222258,-0.28719127023045987,2.415146426090534,-0.00202487048727664,0.060730573863353794,31.18264622952936
0.3411371237458194,-1.9769707143634003,-0.32823887962625814,2.2762988528632606,-0.0010656816049126822,0.17739836070133153,25.77030160752355
0.34782608695652173,-1.961016571931753,-0.37011870992037466,2.129590303844197,0.0033356539491483607,0.36607274191394634,20.926578383520756
0.35451505016722407,-1.9452280004498461,-0.4141947730348931,1.9572748618294726,0.009856063737381812,0.5860063633813526,16.603512740993143
0.3612040133779264,-1.9296160637278963,-0.46116644658315603,1.7402168138921177,0.020899388980375383,0.7698603448853537,12.792253827216317
0.36789297658862874,-1.9141882095030225,-0.5114110628428798,1.4596408130750658,0.03922835260886092,0.8574187713729828,9.493547270327928
0.3745819397993311,-1.8989683345445256,-0.5674079231468867,1.0557131179305488,0.054330796774737136,0.9712982566684277,6.924703599868646
0.38127090301003347,-1.8827987787341613,-0.5482536817535423,0.7078283025946412,0.05577928452299406,0.971569238250677,5.0596674487023865
0.3879598662207358,-1.8664568313855072,-0.4885752507342768,0.43006769593887517,0.04747272139270699,0.8727888712907115,3.739999347437407
0.39464882943143814,-1.8505003695995974,-0.42003523726993297,0.22045308096985153,0.03575388259698687,0.7162063378161329,2.774079923292982
0.4013377926421405,-1.8351279260896538,-0.3594613118878945,0.0669952314585639,0.02564479474290578,0.5454777144075817,2.0188340620825422
0.4080267558528428,-1.8204693077243561,-0.30831914415802336,-0.026026954888432055,0.018597547907443675,0.40752715362542435,1.4597178337552705
0.41471571906354515,-1.8063882383672736,-0.2651644539525111,-0.07772356177051129,0.013403486750261972,0.29935577570260585,1.0153366684326264
0.4214046822742475,-1.7927531998784194,-0.22767739568052006,-0.10003425587640397,0.009470039098437098,0.21333502341350813,0.6419701489037336
0.4280936454849498,-1.7796209103946212,-0.19613682205910196,-0.09145299265497946,0.006807061242231142,0.15153426600367348,0.3331310186391513
0.43478260869565216,-1.7672290545736218,-0.16875513453462762,-0.043830439141754794,0.01164312170320329,0.3643261410318054,0.2757784770671088
0.4414715719063545,-1.7553021937490596,-0.1398315209758405,0.0068770480600992764,0.01903669861848764,0.6054055352702514,0.17239024608956774
0.44816053511705684,-1.7444300447879895,-0.10316293902667513,0.042664621431791026,0.030030780785246812,0.763233700357899,-0.24399421171049657
0.45484949832775917,-1.7336892236748394,-0.06390743531068924,0.0697055162423328,0.030355515226570984,0.6820352168943484,-0.42880296641371757
0.46153846153846156,-1.7231249598676222,-0.02117407107201908,0.08498736659216147,0.016336366627827687,0.2794890392222543,-0.302281086328103
0.4682274247491639,-1.7122640993679252,0.013782522982923866,0.12564216303530631,0.012360488602637835,0.11891515638227437,-0.11756832342198031
0.47491638795986624,-1.701177097891414,0.04280969688451705,0.185642633114324,0.0160421302851775,0.1428337257600647,0.11151224066452761
0.4816053511705686,-1.690204393679567,0.0710554930202891,0.24016605147839726,0.021484027833755713,0.18341210062254334,0.34437256986590886
0.4882943143812709,-1.6792616179161428,0.0990965144779995,0.2932695839681663,0.02737964261591491,0.2282794183027325,0.5782142409883955
0.49498327759197325,-1.6688574292755727,0.12330451091760362,0.3330278304853599,0.035278560303136586,0.28753873766091825,0.8225457315986959
0.5016722408026756,-1.658580529762467,0.14517744505963145,0.37105281858857664,0.04330170349024277,0.3475097337983041,1.0665256850253555
0.5083612040133779,-1.649298999224764,0.14879077908546626,0.39552416164767945,0.0522962588552937,0.4130458634285569,1.3077567060548283
0.5150501672240803,-1.6400174686870608,0.15240411311130103,0.41999550470678226,0.061290814220344644,0.47858199305880983,1.5489877270843015
0.5217391304347826,-1.6332954512325908,0.08106395441558249,0.4293900853619493,0.0685104304274719,0.5316244640904233,1.7356737857745128
0.5284280936454849,-1.6265804039188096,0.009519680182099366,0.4387436085379504,0.07572521306850952,0.5846329120265022,1.9222113060322115
0.5351170568561873,-1.6196131452447462,-0.05192162194450548,0.44733800414186176,0.08320977627081545,0.6400272060338676,2.1154579283838184
0.5418060200668896,-1.60941530132041,0.016046443674599273,0.44620870476738206,0.09414996931100318,0.7259818963639703,2.3946417037760606
0.5484949832775919,-1.599067819416542,0.09149315672351498,0.4358536298168378,0.10451992690813251,0.8147892339333263,2.6837590515455805
0.5551839464882943,-1.587848260597129,0.2105247658226106,0.3717315504395016,0.11156660275637789,0.920221547416788,3.0307683809246027
0.5618729096989966,-1.5768759262435992,0.29964022984313143,0.17347436117347317,0.1102840170683465,1.0216848569868673,3.520642123388762
0.568561872909699,-1.566280849171964,0.34310453415020903,-0.22946907054210153,0.09629122263888437,1.1170915830273107,4.228522768880938
0.5752508361204013,-1.5557927567746117,0.3989963821087868,-0.5982375723354583,0.07348126760100446,1.2669336762332066,4.914386725325159
0.5819397993311036,-1.5453950184290701,0.4653839289185705,-0.9381435906981999,0.043224767609126434,1.4627492326306357,5.581656457164096
0.5886287625418061,-1.5354435860073687,0.5533523210140601,-1.223329911103911,0.0060594853730331875,1.6065564907040497,6.094055751717955
0.5953177257525084,-1.525729103446235,0.6527782762030002,-1.4794648026384478,-0.03477376294196204,1.7227518386997207,6.524232233262729
0.6020066889632107,-1.5174193910831857,0.7984671822482385,-1.6699618479456841,-0.0732723206709952,1.7791252451108928,6.7684032381963135
0.6086956521739131,-1.5099296999436969,0.9711616452297189,-1.822143425677805,-0.11040802500696333,1.8005781628892739,6.903995317745756
0.6153846153846154,-1.5024261220436423,1.143609416686103,-1.9739362359066501,-0.14753823307458835,1.821302049070434,7.037514668861205
0.6220735785953178,-1.4934040141566858,1.28908124392534,-2.0832169635752678,-0.18406741916479627,1.7623056623663158,6.9443792672816045
0.6287625418060201,-1.4843819062697292,1.4345530711645773,-2.1924976912438856,-0.22059660525500413,1.7033092756621977,6.8512438657020045
0.6354515050167224,-1.4721012482061775,1.4958957211388069,-2.2439794271896734,-0.24701682602937983,1.5379040231510095,6.413877986768009
0.6421404682274248,-1.4588394102456697,1.5358303725809122,-2.244688118398695,-0.26137479682564957,1.3376521708078766,5.786573218109322
0.6488294314381271,-1.4448704839138986,1.5660796489471598,-2.1599761600042684,-0.2538430596781666,1.108182057904917,4.896119055640566
0.6555183946488294,-1.4301422824485035,1.586145359886861,-1.9610522004861322,-0.22944031712058183,0.8861514783424813,3.7482996136765765
0.6622073578595318,-1.4149327935989437,1.6027332545832387,-1.674866501796166,-0.19815923842631505,0.6850308281115307,2.4953666146330433
0.6688963210702341,-1.3992324967249996,1.6167719350995606,-1.28986239365871,-0.16147308325202717,0.5104347376954704,1.189164405708312
0.6755852842809364,-1.3830390954602398,1.6294645857456194,-0.7952532827860699,-0.1224002328402724,0.36612270081803927,-0.08710290672976845
0.6822742474916388,-1.3663108311200196,1.645620728955243,-0.18055047731353202,-0.09527031738068201,0.2597197394149178,-1.158920854865891
0.6889632107023411,-1.3476481636433746,1.703050165745635,0.4628171332766656,-0.06079464794429079,0.20936706791238383,-1.9916137512620105
0.6956521739130435,-1.326222004758821,1.758815020973938,1.0917423611197212,-0.051009127361610174,0.1251942268005099,-2.5484777016312457
0.7023411371237458,-1.3019035684525246,1.7880120754862234,0.3018732493947136,-0.03454170548719994,0.0816917123612141,-1.0298480018309135
0.7090301003344481,-1.27344297188249,1.5953171752059565,-0.4987358105166195,-0.020665017780095416,0.047990683652913514,-0.6630158119216124
0.7157190635451505,-1.2457195710374305,1.3222451468261134,-0.656622308595376,-0.011523616274969973,0.026638709270415523,-0.8417217097454837
0.7224080267558528,-1.2211772508890564,1.0976240696350712,-0.8052410918345937,-0.005883358770343317,0.013476734386260807,-0.88407516373188
0.7290969899665551,-1.1998588602768894,0.8903861690598365,-0.9275060760418358,-0.0022816716346979325,0.00463035500037517,-0.8904426390060677
0.7357859531772575,-1.1811991492563947,0.7008358788327241,-1.1161147624155465,0.00017060304886088297,-0.0018552731894045371,-0.7937106337498986
0.7424749163879598,-1.1630006070976524,0.5645210583048896,-1.2551378554466026,0.002034285415296335,-0.007148743220385965,-0.5677381829600049
0.7491638795986622,-1.1438925480208981,0.5025442686641244,-0.8935886955795177,0.0034551569752831225,-0.011523981394622696,-0.4529386245378432
0.7558528428093646,-1.1252596405483468,0.4709976855971747,-0.4136623519591217,0.004411631062052779,-0.014522340921553046,-0.42825726696719507
0.7625418060200669,-1.1070855335203613,0.45537532829819644,0.05060054985219026,0.0049981380832433715,-0.016230269212908148,-0.3884635264009548
0.7692307692307693,-1.087512589823919,0.4445213256968741,0.33606890265930023,0.0053075804128992704,-0.016710737195722764,-0.2968310301944681
0.7759197324414716,-1.0667625705176693,0.4366612430475696,0.44840100542594974,0.005363855572475628,-0.015995689713783304,-0.22308193172324234
0.782608695652174,-1.0452021183167683,0.43147950560035037,0.46788307219353403,0.005221693482060572,-0.014378604135261836,-0.165987029123275
0.7892976588628763,-1.0229563762880665,0.42842190690466675,0.4426202816426657,0.0049459040540451625,-0.012264800776511712,-0.12299506250604632
0.7959866220735786,-1.0001107132962774,0.4269998455199908,0.39823927964755956,0.00459485033723459,-0.010036394925174727,-0.09091781321516411
0.802675585284281,-0.9767031391172524,0.42678323492974857,0.34767357978977365,0.004213262945328615,-0.007970598018626814,-0.06692765710514093
0.8093645484949833,-0.9527736058497543,0.42754889745647656,0.2971662067538512,0.003832557674984472,-0.006225491484624545,-0.048869771632240766
0.8160535117056856,-0.928247119969156,0.42903567224037176,0.2500235520156532,0.0034764539105142252,-0.0049111911257739135,-0.035663896027604836
0.822742474916388,-0.9032044259792046,0.4311025380539107,0.2067284777291271,0.003151452787876227,-0.003948955155550316,-0.0255016667022127
0.8294314381270903,-0.8776934614238852,0.433603667521018,0.16729274588783546,0.002859415907161096,-0.0032820200879076357,-0.017631006934564264
0.8361204013377926,-0.8516666676723428,0.4363812685397595,0.13160926654890331,0.0025999830174720994,-0.0028638912178743743,-0.01161042133729174
0.842809364548495,-0.8251124629073028,0.43975305928459074,0.09924642308816997,0.0023672522825630635,-0.002639644238675577,-0.007012926701116995
0.8494983277591973,-0.7980799653319294,0.44324389847995577,0.06933075560714166,0.002151169507605261,-0.002546543400395979,-0.0033649756584865002
0.8561872909698997,-0.7705024233571739,0.44701163182976916,0.04165773084042987,0.0019426230987220564,-0.0025741994769969035,-0.0005187053772428071
0.862876254180602,-0.7424575476581797,0.451029262054092,0.01565453344645327,0.0017302966810021918,-0.002702033366654193,0.0017878579752427242
0.8695652173913043,-0.7138717602384668,0.45512564023848395,-0.00916734056061489,0.0014969788544063982,-0.002930751887999885,0.0037435280441686287
0.8762541806020067,-0.6847921196315843,0.45961465607527086,-0.033015248786234797,0.0012187048092674696,-0.003285342843876084,0.0055007270807560064
0.882943143812709,-0.6551790902483496,0.46440536485385503,-0.05630951252469346,0.0008494830859732399,-0.0038041804527140996,0.007286977066325781
0.8896321070234113,-0.625043451731378,0.46943320370213837,-0.07899511632060309,0.0002123967584179021,-0.004640743754883681,0.009490689238152236
0.8963210702341137,-0.594415440536558,0.47488577306200086,-0.09977495377771584,-0.0022852274214303072,-0.006769856169893106,0.013835742592824165
0.903010033444816,-0.563251896500764,0.48055250252717124,-0.13333255463466678,0.004076634051343609,-0.006669511255709069,0.008481189491678082
0.9096989966555183,-0.531548191686985,0.48694099507455374,-0.1632363835637862,0.01266539899033138,-0.01154880572475677,0.00699583005488784
0.9163879598662207,-0.49937901291035414,0.4938776587857658,-0.19418019383093868,-0.009544013877030943,0.0031455915477860783,0.01676454598931124
0.9230769230769231,-0.4666847889471436,0.5018616371076551,-0.20323787648831737,0.00000005274338411098055,-0.00000001173067700798978,0.004012605485143354
