# n,energy,berry,bcd_x,bcd_y,qmd_x,qmd_y
0.00000016666666666666665,-3.1039541845563634,0.0000000009739061586999046,0,0,0,0
0.006688963210702341,-3.056341072369251,0.000044694316869927394,0.00007650500724139898,-0.00013251055329257302,0.00017013458624351733,-0.00009822732698217812
0.013377926421404682,-3.0094099057597097,0.00011283792862225359,0.0002177896962577593,-0.00037722291881540486,0.00046676835532511585,-0.00026948870647208425
0.020066889632107024,-2.963201869327368,0.00022515248055675796,0.00039886422574296314,-0.0006908533002343742,0.0008181686108790032,-0.00047236958018541636
0.026755852842809364,-2.9288241656231895,0.00036195184165994617,0.000563942065646862,-0.0009767764852007207,0.0010472499228147375,-0.0006046299765031321
0.033444816053511704,-2.9052713599028444,0.0004897091650752725,0.0007116866247264404,-0.001232677186858084,0.0010975090648641073,-0.0006336468884553275
0.04013377926421405,-2.882308230626505,0.0006396394453587811,0.0008774261629532113,-0.0015197469401327106,0.0010608335501449228,-0.0006124713049644957
0.046822742474916385,-2.859521073677932,0.0008162680732654432,0.0010562394001655416,-0.0018294609951195015,0.0009367192568305044,-0.000540814348938524
0.05351170568561873,-2.8369359951220092,0.0010200890505634014,0.00124142407074431,-0.002150208627298892,0.0007209761236909039,-0.0004162561575809953
0.06020066889632107,-2.8145263355986434,0.0012523332393590662,0.0014277466603122432,-0.0024729292199642755,0.000404395803074218,-0.00023347806249106177
0.06688963210702341,-2.792290772120896,0.0015146421507670916,0.001610012377890623,-0.0027886231067949427,-0.00002815773394072144,0.000016255209996000528
0.07357859531772576,-2.7702443960875023,0.0018082063621915855,0.0017348512778381782,-0.0030865155252536142,-0.0004603068578150017,0.00039570983865034335
0.0802675585284281,-2.7483658040459007,0.002135530188667402,0.001860856619954018,-0.0033626247859624755,-0.0010656390626696492,0.0008775657264741994
0.08695652173913043,-2.7266683432445684,0.0024977522445130966,0.002013868499214884,-0.003604873577149114,-0.0019873666866533045,0.0014260469502364811
0.09364548494983277,-2.705148482863803,0.0028962833892167733,0.0021277486985783914,-0.003795468370552813,-0.00312169444512953,0.002102230118640955
0.10033444816053512,-2.683827600776504,0.0033347745871454447,0.002202717477389558,-0.0039214277615448314,-0.004526237141314304,0.0029282115069292325
0.10702341137123746,-2.662662957568737,0.003813103615883792,0.002232515777064873,-0.003968691576091617,-0.006266415591871527,0.00393466707071488
0.11371237458193979,-2.641712099628026,0.004334362889793252,0.002208844101017514,-0.003921283255303663,-0.008414008364035273,0.005155350788079689
0.12040133779264214,-2.62094403561408,0.004899637659858564,0.0021226276058760756,-0.0037622213939725604,-0.011067034060843212,0.006637538081209802
0.12709030100334448,-2.6003582163898598,0.005512659448484149,0.0020803077343478685,-0.00337705358305803,-0.014201360599623212,0.008340109184529947
0.13377926421404682,-2.5799662641862584,0.006169416790701448,0.001830837840707246,-0.002957068418180252,-0.018300128105432818,0.01052670165093034
0.14046822742474915,-2.5597737377025,0.006875288472531838,0.0014946881070666052,-0.0023654074502543797,-0.02335852196584,0.013203117255031331
0.14715719063545152,-2.5397905949681268,0.00762685923557657,0.001066431143277626,-0.0015901840646441964,-0.02963501912604905,0.016495704880657346
0.15384615384615385,-2.520009160153502,0.008426325345853745,0.0005401599913778287,-0.0006315782123472831,-0.03747047115689248,0.02058036125746097
0.1605351170568562,-2.50044366598897,0.00927011213593942,-0.00007599634618041159,0.0004945365643457074,-0.047291310777761476,0.02568435643665283
0.16722408026755853,-2.4811078189895674,0.010151503542729666,-0.0007535772400577368,0.0017388174331671481,-0.05964792446269847,0.032108776149776676
0.17391304347826086,-2.462004899915642,0.011063066222995042,-0.0014286057285134383,0.0029912126949536207,-0.07525756465991525,0.040255305813911145
0.1806020066889632,-2.443155927887333,0.011989951068320598,-0.0019730336589459784,0.004030832472161919,-0.09502364386893151,0.050641208026573376
0.18729096989966554,-2.424599786618317,0.012916016972870611,-0.0021478018168120763,0.004444502536278923,-0.12004451837174863,0.06390742064896249
0.1939799331103679,-2.406341923989724,0.013804989866026813,-0.001525780535754315,0.003493262002587049,-0.15166653352045553,0.08084854546340796
0.20066889632107024,-2.3884295943322855,0.01460751056628906,0.0006296577740289172,-0.00009860195589443893,-0.19129850110795998,0.10231079990870695
0.20735785953177258,-2.3709725309705307,0.015245333434172802,0.005482565711280758,-0.008348299455514414,-0.24011201245460193,0.12902019595970002
0.2140468227424749,-2.3541161755364146,0.015600991131566539,0.0142477804498834,-0.023362412020661364,-0.2970650341429481,0.16043370493451306
0.22073578595317725,-2.3382995087420344,0.015380933209762814,0.02829589373829377,-0.047518968612306686,-0.3514724486240563,0.1904742271392172
0.22742474916387959,-2.321713856252335,0.014980697884742584,0.04655295011277387,-0.07894034030668129,-0.3315025617625636,0.17759607889673237
0.23411371237458195,-2.3048995884071433,0.013807944983769999,0.07151301857954828,-0.12195525081436089,-0.2001659223919848,0.1005473143506902
0.2408026755852843,-2.2884740998257826,0.010175101001660268,0.10152164603400655,-0.17371144786108578,0.09453420583945293,-0.07061617010852361
0.24749163879598662,-2.2724817530521344,0.0035277046681266274,0.13332844529479546,-0.22858400415802257,0.5349158302619591,-0.3256423788520277
0.25418060200668896,-2.255500455878615,-0.004520165483358426,0.16373492702743023,-0.2810105999042108,0.9810156514034787,-0.5835508437829258
0.2608695652173913,-2.237231950726664,-0.012108452942146908,0.1932311084790028,-0.3318713040652511,1.3860132021041252,-0.8172988584536481
0.26755852842809363,-2.2184501554870324,-0.019576164023480617,0.223240218822293,-0.38366163910182843,1.767844897048153,-1.037167373499504
0.27424749163879597,-2.2000970560321553,-0.02585648022620085,0.2564562132733482,-0.4410786959574581,2.1210779447304393,-1.2400119605541176
0.2809364548494983,-2.1813018915367546,-0.03250187620997363,0.2909259152347149,-0.500747538651535,2.429196183395074,-1.4163149612518147
0.28762541806020064,-2.161319662099884,-0.041257996604156535,0.32845396104719254,-0.5658217387546265,2.64587203702748,-1.539399981190581
0.29431438127090304,-2.142840717365444,-0.04565041532941501,0.34794996773944337,-0.5997844388666936,2.880666732844097,-1.673017674502208
0.3010033444816054,-2.125344633608739,-0.043802982015464,0.3392556705119393,-0.5849869941245235,3.3525855425593973,-1.9439531197410602
0.3076923076923077,-2.106810263848353,-0.038087748305272034,0.31146973118139953,-0.5371836272369728,4.1111686051256635,-2.381146664512468
0.31438127090301005,-2.086300147530395,-0.03188813819190011,0.2862642897914491,-0.49385094498346505,4.978413953553107,-2.883180874617893
0.3210702341137124,-2.064255283658145,-0.026680312356724127,0.26645621218264065,-0.4542941944518522,5.887762633808346,-3.4101856802087536
0.3277591973244147,-2.0425356581838345,-0.02212802773540963,0.25481234838320843,-0.4267794189059501,6.742626121096024,-3.912658175474279
0.33444816053511706,-2.021925042960778,-0.02113842456996902,0.25895002905557685,-0.4324125305480305,7.548925429770496,-4.412262006237392
0.3411371237458194,-2.0009406068169278,-0.03611773166339907,0.33222829975677676,-0.5542077659756639,8.57205601808715,-5.111045432908823
0.34782608695652173,-1.979473463844616,-0.1080721484996382,0.7668333570334416,-1.3950066173690976,10.896678587987225,-6.282456253486757
0.35451505016722407,-1.95825701989564,-0.7139001231031371,9.38842876521085,-22.25727380201601,22.9851995648597,-11.05676702114734
0.3612040133779264,-1.940058051646054,-0.5619108253861618,3.261031531669442,-8.965523575978658,21.109155975115428,-10.024842958011464
0.36789297658862874,-1.9236219810920139,-0.08007290219523691,-3.4902503616587683,6.896865834498814,10.823256348670498,-5.21286463027011
0.3745819397993311,-1.90758664133729,0.1499368416372889,-0.7994243187528652,1.5888514072816602,2.8945432643886644,-1.105945512866306
0.38127090301003347,-1.8913386799930985,0.20855325727928048,-0.41225360956042095,0.7688265532311662,-0.15123160643445432,0.3686942264148845
0.3879598662207358,-1.8739622893399477,0.24666171103805035,-0.2740400790179083,0.4892064932787654,-1.6632804957600213,1.113206065986018
0.39464882943143814,-1.8579233242041204,0.2716363995190442,-0.2034090586284879,0.35371225029163345,-2.514968541609575,1.5349067674540866
0.4013377926421405,-1.842756406417202,0.29231656951997054,-0.16200332986500326,0.27753403256084774,-3.0201872618357277,1.7883692692342426
0.4080267558528428,-1.828224145273679,0.31184413689329876,-0.13704839699573582,0.2330365285021985,-3.2919756475010113,1.9267613940758967
0.41471571906354515,-1.8145650831981144,0.3314199774355455,-0.1265468487231611,0.21532555892284314,-3.2679669852547195,1.9057196083226744
0.4214046822742475,-1.8008678471912827,0.35298338582189226,-0.12244250529518577,0.20881311740396533,-3.126828647856067,1.821612992810993
0.4280936454849498,-1.7871903883571474,0.3764225615346888,-0.12302052271416936,0.21048361470898688,-2.933114273395035,1.7095791011539778
0.43478260869565216,-1.773700251000814,0.4036317621548814,-0.12942614072299585,0.22229178426754018,-2.7870172062990006,1.624954966582457
0.4414715719063545,-1.7604870926721807,0.43469548026420585,-0.13834070668110646,0.2384177888047404,-2.6625143096668356,1.5526072516814924
0.44816053511705684,-1.7474721553031118,0.4685514821620416,-0.14859070813101324,0.2568312280930861,-2.548556922215776,1.4862076099558799
0.45484949832775917,-1.7348948105031172,0.5087190904063228,-0.1597820135763042,0.27679357807591304,-2.4364709238796904,1.4205623599374086
0.46153846153846156,-1.722655968170193,0.5540069063018824,-0.17035850647607959,0.29562861770952614,-2.3105060649724813,1.346855429672063
0.4682274247491639,-1.7107241701635525,0.6039390922143707,-0.18037732336993909,0.3134411116297136,-2.1719521533752775,1.265836017457807
0.47491638795986624,-1.6995055899031044,0.6655269726267641,-0.18758167808787868,0.32628572666359373,-1.9850991065152321,1.1572550125878391
0.4816053511705686,-1.6884373962032113,0.7295875285503561,-0.19418925601636294,0.3380774615705843,-1.78801178558372,1.042836819025871
0.4882943143812709,-1.6785490887022407,0.8174371411601047,-0.19514032674969622,0.3400367482576911,-1.495969728738773,0.8751151312288385
0.49498327759197325,-1.6686607812012701,0.9052867537698531,-0.1960913974830295,0.3419960349447978,-1.2039276718938257,0.7073934434318062
0.5016722408026756,-1.6613946368957657,1.0539855798698325,-0.19144118889809197,0.334392411286162,-0.9044190294232828,0.5383837581450227
0.5083612040133779,-1.654242435208788,1.2053285277134005,-0.1865475841607994,0.3263732440612773,-0.6045859363925667,0.36931810463822445
0.5150501672240803,-1.6468711569861445,1.3519513280578652,-0.18091224174387668,0.3172812587704432,-0.3349549782699142,0.21959491880508192
0.5217391304347826,-1.6380477209834519,1.467286437582488,-0.17036026076976815,0.3010780550357484,-0.26552010708780743,0.19808407133236472
0.5284280936454849,-1.6292242849807592,1.5826215471071106,-0.15980827979565965,0.28487485130105356,-0.19608523590570068,0.1765732238596475
0.5351170568561873,-1.618078125716783,1.6422827513005276,-0.1284059978319977,0.24126269068842263,-0.26944290296433965,0.28933915471914373
0.5418060200668896,-1.6065102345153557,1.6903326095524964,-0.08699683160743943,0.18581512286932472,-0.3779826454615062,0.4401583138612207
0.5484949832775919,-1.595161269025422,1.729270197277966,0.011894023154161465,0.06741059443930672,-0.561506130233195,0.7089743415788179
0.5551839464882943,-1.5837697791913852,1.7684740510642523,0.2070749622658978,-0.23513292346019854,-1.0019186523385104,0.9805118893968907
0.5618729096989966,-1.572284940262672,1.8082624099439015,0.6136311122117499,-0.9418968549628534,-2.006251902043563,1.2580236960279017
0.568561872909699,-1.5608956726016483,1.899862121902927,2.4006120092279737,-4.0672315890151935,-4.130641290191715,2.371960433876363
0.5752508361204013,-1.5495838810480735,2.0334633899287065,5.3066524166411675,-9.153212612483618,-7.16301894540283,4.163956063380078
0.5819397993311036,-1.5385013100813025,4.211525771566709,3.7141476470875143,-10.7783176091651,0.9806593071428367,8.670477301649974
0.5886287625418061,-1.527489285531868,7.018804791034848,0.7371413810114795,-11.338280910060506,12.56395315113184,14.012438581053214
0.5953177257525084,-1.5167890110611688,4.6726999010239485,-1.9513024084165596,-1.9594716334234583,-0.07655487430289654,11.393483808919067
0.6020066889632107,-1.5061749459143035,2.0151078030436667,-4.4843875199013885,7.770073895307646,-14.058691535103609,8.231840155485607
0.6086956521739131,-1.4973089037094676,1.7781800662546199,-3.274537775186463,5.800819882636803,-13.216397396439286,7.079981234332809
0.6153846153846154,-1.4884428615046315,1.5412523294655727,-2.064688030471537,3.831565869965961,-12.374103257774962,5.928122313180014
0.6220735785953178,-1.4803374275509797,1.3379393698924062,-1.6700036214049931,3.0973506622903524,-11.55162365642336,5.723769054549671
0.6287625418060201,-1.4724806965383395,1.1456177372500433,-1.5418611753932194,2.766967233440827,-10.735622993075363,5.829230269437598
0.6354515050167224,-1.4636826159993401,0.9695011985838317,-1.442458602872704,2.5060446599455815,-9.953655438536927,5.870807912504334
0.6421404682274248,-1.4505917818344263,0.8672833277094552,-1.4741159530305432,2.561878328772463,-9.326886083129093,5.621062909845125
0.6488294314381271,-1.4354037195760283,0.7372478632696072,-1.7004896809291654,2.951014168385268,-8.659900450907326,5.306629732857035
0.6555183946488294,-1.418603778518907,0.5886439603503948,-2.239661685022874,3.88092525914592,-8.03948041355913,4.9829768097364875
0.6622073578595318,-1.4010159372724313,0.4269410410406563,-3.427051629378877,5.935765828795869,-7.599764165341295,4.740635232980684
0.6688963210702341,-1.3827852721446436,0.2175909153383859,-6.576804615640322,11.390542946425132,-7.518335513386746,4.688859827898043
0.6755852842809364,-1.364056522766235,-0.17897327433650456,-16.674187536225418,28.863466200446016,-7.936288154373622,4.9564379664636995
0.6822742474916388,-1.3448754030966616,-1.8390021835472525,-48.30877143739003,83.30374256971996,-2.238595121170764,2.5388268874312616
0.6889632107023411,-1.3258308224270876,-0.35404954763642227,47.61036234427802,-82.48893083348727,-1.432532166795872,1.1524971957346224
0.6956521739130435,-1.306569199119968,0.07080925813465144,13.97998805582256,-24.213750594475428,5.280979597885793,-2.831418321427457
0.7023411371237458,-1.2870351871428787,0.09798521769523277,4.20000737784627,-7.284751364614914,8.12018740677275,-4.509285245382762
0.7090301003344481,-1.2658659859626946,0.059185010070898596,2.3818735242513993,-4.12497719578817,9.221961411955892,-5.2025260001359275
0.7157190635451505,-1.241564853078005,0.037399939443169966,2.4464670360273075,-4.235633320739845,9.64874326721446,-5.485243939982358
0.7224080267558528,-1.2181801276536386,-0.03246472662896096,4.7026121134332275,-8.143163552378379,10.123637981661211,-5.792622781955105
0.7290969899665551,-1.1967675409467806,-0.2927177536413921,19.28762943398612,-33.406779849378616,11.550606362280849,-6.642586035420235
0.7357859531772575,-1.176919587394925,-0.6360822874394819,-1.571069733702167,2.719753803018776,11.646583212579722,-6.713716795265249
0.7424749163879598,-1.1560169636818038,-0.32164844952875893,-74.66723119190556,129.3319875136447,4.12792793502022,-2.3982567617829016
0.7491638795986622,-1.1344031559317527,0.21789252996047337,-5.542917998381675,9.606362537444154,-3.1018959428437745,1.7661134692675788
0.7558528428093646,-1.1124296177144357,0.28837410927652884,-1.2888417111877808,2.2393591009126865,-4.000996417242002,2.2815054790261606
0.7625418060200669,-1.09044485186136,0.3247043644595263,-0.3829626146926604,0.6714878131015919,-3.9688998928991777,2.263434472327511
0.7692307692307693,-1.068743651195167,0.34949101586205955,-0.07165686069259333,0.13323366109502544,-3.6207592047282118,2.0652818344027324
0.7759197324414716,-1.0477271323989865,0.36576545118655573,0.07105784898148364,-0.11328062027039333,-3.1102658402460595,1.7743370185564615
0.782608695652174,-1.0284021214981847,0.37065893616402096,0.16353212314715837,-0.2730523446971332,-2.5302938374244466,1.4431768717424207
0.7892976588628763,-1.0085396821454327,0.37252479852822457,0.22156519580749476,-0.37336030505749884,-1.9924985269753066,1.136287138645117
0.7959866220735786,-0.9871633972822551,0.37503601650512264,0.23718688929098522,-0.40039275345036285,-1.5546725403081074,0.8869799040450402
0.802675585284281,-0.9647986961625977,0.3775304015223236,0.22403364066467232,-0.3777636658840054,-1.2171767666524407,0.6952275403705459
0.8093645484949833,-0.941703887380925,0.37977916868736317,0.1986002588107929,-0.33400997425089707,-0.9610765953454357,0.5500140759044155
0.8160535117056856,-0.9178969806276442,0.38183101769880107,0.1692111378229839,-0.2835173000189024,-0.770214301704181,0.4419913852705287
0.822742474916388,-0.8934968596366103,0.3839404567679318,0.1400646836087634,-0.23350956476307672,-0.626442889924748,0.36073826409712095
0.8294314381270903,-0.8685197306541934,0.38614989025632634,0.11249651230495905,-0.18626532679565672,-0.5151017677716657,0.2978782079177709
0.8361204013377926,-0.8430102134628397,0.38855115297232296,0.08690547307146926,-0.14244918653790242,-0.4281472001029338,0.24882639632841305
0.842809364548495,-0.816991040039087,0.39145438890025724,0.06339945293233877,-0.10222864770989808,-0.3605326403019324,0.21071506293379233
0.8494983277591973,-0.7904132086288154,0.39487066755710915,0.04181146754522522,-0.06530320232421893,-0.30806215210313637,0.181174288987846
0.8561872909698997,-0.7633431767473362,0.398771596176489,0.021639469700960322,-0.030802431521891896,-0.26573648306799824,0.15739250509696887
0.862876254180602,-0.7357478563585874,0.4031909799460865,0.0026912636708518707,0.0015986878632950465,-0.23180704563368038,0.13841129122454043
0.8695652173913043,-0.7076340377328727,0.4084614964714316,-0.015161591372708077,0.03206412943095639,-0.20503971253014425,0.12358777077631306
0.8762541806020067,-0.6790562646482581,0.41462766889130603,-0.032184742534436664,0.06079212334446133,-0.1835073125756571,0.11187868665417071
0.882943143812709,-0.6499373464710905,0.42175145572534184,-0.04793013189310982,0.07003326020368594,-0.18027158082482495,0.10842927870744276
0.8896321070234113,-0.620354723156456,0.4300455988275821,-0.060289746048476006,0.12320297851881486,-0.1464731660073571,0.09723696843049683
0.8963210702341137,-0.5902717230343525,0.43973420130950225,-0.09274185368167664,0.1558167566797845,-0.1344943490147248,0.07954780788728771
0.903010033444816,-0.5597340000052533,0.4510343421179921,-0.1106571250254128,0.18572286161512294,-0.12433591017788642,0.07378861906067362
0.9096989966555183,-0.5287303680721424,0.4643894658598563,-0.1289061661798402,0.21586055025411277,-0.11612367639291163,0.06917294164741453
0.9163879598662207,-0.497359861948098,0.480089417941053,-0.14755323667626674,0.24610695669770838,-0.10965070923831025,0.0655929621314355
0.9230769230769231,-0.4655556835642966,0.49899354767521276,-0.16760474886593574,0.27702795364343125,-0.10612235639000116,0.06367905990871692
0.9297658862876255,-0.4334769189325987,0.5217907953969279,-0.19963585360775143,0.3385643405502848,-0.13036444242583387,0.06451026125963051
0.9364548494983278,-0.4012201429022502,0.5496620482085175,-0.18274942469826982,0.31653105215323946,-0.08818188450100929,0.05091175654608717
0.9431438127090301,-0.3690027924381222,0.5844181688438179,-0.1883356543098284,0.32620712585952627,-0.08363437012402687,0.04828627490598324
0.9498327759197325,-0.3370951054154996,0.6283148319262343,-0.1829243696169424,0.3168344722766989,-0.07954619824023637,0.04592597262616277
