# n,energy,berry,bcd_x,bcd_y,qmd_x,qmd_y
0.00000016666666666666665,-3.1559754106620104,0.000000002720522725727831,0,0,0,0
0.006688963210702341,-3.1088002868106877,0.00011634084580788075,0.0001454652704781162,-0.00025195261351135305,0.0002891645493734189,-0.00016694838400290748
0.013377926421404682,-3.062348719427199,0.00025953482692695726,0.0004153476904239594,-0.0007194030039879887,0.0007861417974329256,-0.00045387879686111546
0.020066889632107024,-3.0166247453417934,0.00044870318352667113,0.0007637747679255127,-0.0013228967528413186,0.0013612038366690531,-0.0007858915854103833
0.026755852842809364,-2.9716355680560493,0.0007052532888406327,0.001161921524808166,-0.0020125073949788666,0.0019094352475534974,-0.0011024131936738391
0.033444816053511704,-2.92853518065833,0.0010450569709035977,0.0015740846350220897,-0.0027263934501569817,0.002286587150358429,-0.001320164505493454
0.04013377926421405,-2.905557906562661,0.0012952399670652546,0.001849228608161183,-0.0032029573652055535,0.0022146617179574788,-0.0012786366137480668
0.046822742474916385,-2.883112737588936,0.0015763586339105564,0.002160356327604374,-0.003741847144527489,0.0018984811628943575,-0.0010960903865781394
0.05351170568561873,-2.8608579747124026,0.0018922999669623859,0.002493490552992506,-0.004318852109495802,0.0013489312921514966,-0.0007788056782856996
0.06020066889632107,-2.8387971304974715,0.0022459119089851373,0.0027008037477317883,-0.004953829988202411,0.0007665937934248061,-0.0002751717921628624
0.06688963210702341,-2.816921092417608,0.002639188169960882,0.0029715299472983106,-0.00557615667379264,-0.00007579737334544034,0.0004650764153152086
0.07357859531772576,-2.7952411921399056,0.003072993834762487,0.0034400642951460778,-0.006146430946802181,-0.0015548061894735663,0.0013551981466930385
0.0802675585284281,-2.773760189699779,0.0035502829809274565,0.0037910285146522337,-0.0067350967390162365,-0.003365038345904785,0.0024123803664681184
0.08695652173913043,-2.7524704847068238,0.004072961179976232,0.00411632501981406,-0.007290786000518054,-0.005617939433433332,0.0037162088103021825
0.09364548494983277,-2.7313841505935352,0.004642792174438982,0.004414819573455523,-0.007801097970111729,-0.008403475606791421,0.00530454823786841
0.10033444816053512,-2.7104996407204833,0.00526158395850709,0.004682620588728285,-0.008255788283630714,-0.011824902998855084,0.007225250167820591
0.10702341137123746,-2.6898318000773105,0.0059308813975884654,0.004916345749388177,-0.00864686659323324,-0.016002563552191332,0.009536106354939443
0.11371237458193979,-2.669358604808028,0.006650746168803681,0.00511529940897522,-0.008971300338078412,-0.021090028637652962,0.012313423421980253
0.12040133779264214,-2.6490937148509817,0.007423074978295278,0.005282395619561288,-0.009232253753606038,-0.02726649815351704,0.015648461659221104
0.12709030100334448,-2.629066297749153,0.008248221129537783,0.005426895225881314,-0.009443833838790529,-0.034741738168540974,0.019651455659815183
0.13377926421404682,-2.6092739837487757,0.00912442778156574,0.005729554463101656,-0.009316120963336227,-0.04321596111053289,0.024286389097377886
0.14046822742474915,-2.5897145096383123,0.010050062905255586,0.005957325567660284,-0.009517935289025566,-0.05413978911083216,0.030024868690803418
0.14715719063545152,-2.570399437508263,0.01102081392809553,0.006165681010485891,-0.010064467794207405,-0.0676655364418406,0.03706927388428793
0.15384615384615385,-2.551357242648484,0.01202926555780145,0.006598975474777254,-0.010743347780497306,-0.08353148492012896,0.04549830180339639
0.1605351170568562,-2.532602144978159,0.013066561283278589,0.007350419877267404,-0.01193158428073001,-0.10252736175759351,0.055661866809887876
0.16722408026755853,-2.5141432606605623,0.014121410008624257,0.008615900299682407,-0.013983624959451345,-0.12519526264022926,0.06788874289311046
0.17391304347826086,-2.496038426345153,0.015177194989444394,0.010668810562109079,-0.017377705588446594,-0.15200700399916603,0.08247619178316781
0.1806020066889632,-2.4783506054857773,0.016207283889722514,0.0139705494751035,-0.02291464572799199,-0.18370624434715827,0.09988279391422449
0.18729096989966554,-2.4612943612786933,0.017164608546683502,0.019466171557410022,-0.032232910658590096,-0.2214460170709922,0.12082030281293261
0.1939799331103679,-2.445352112225074,0.018026960833702345,0.027248802999276626,-0.04550675144554563,-0.2637937284741824,0.1445079981467957
0.20066889632107024,-2.429411696817974,0.0187134214480076,0.037028095779355424,-0.062222568773626113,-0.29520022785560673,0.1619300956211626
0.20735785953177258,-2.4128846280307625,0.019078196406532126,0.04940114245165026,-0.08340623173135066,-0.3001542001474191,0.16412596164741422
0.2140468227424749,-2.395969484516542,0.018846479390502047,0.06604594821117872,-0.11196682133796043,-0.25960362080841026,0.1401325821972173
0.22073578595317725,-2.3790887992301144,0.01722497623409665,0.08953977375240252,-0.15237915372457111,-0.13873372162735675,0.06990410952383147
0.22742474916387959,-2.3627002259863628,0.012819255235662979,0.11699255948885288,-0.19965540759747563,0.07928139066670624,-0.056283370179203734
0.23411371237458195,-2.3467160383912873,0.0047582523735875725,0.14448049386048653,-0.24700455431091695,0.3593009563412488,-0.21815797585179353
0.2408026755852843,-2.3306440573125173,-0.006114962757588372,0.17047376564694375,-0.2917764061882334,0.6679089085581057,-0.396444237907014
0.24749163879598662,-2.312792672768954,-0.01592936939635255,0.19597767190893087,-0.33570602180807724,0.9562466236995207,-0.5629381524910901
0.25418060200668896,-2.294077866325219,-0.02620700124280015,0.2193346463053267,-0.37596007626575256,1.230882491471609,-0.7214410314610393
0.2608695652173913,-2.274971368431416,-0.03698020170788906,0.24123468585418345,-0.4137486035531668,1.4951576688376327,-0.8739965315912981
0.26755852842809363,-2.2558969738300916,-0.0481319446900834,0.2627317314738776,-0.4509358624015578,1.7483736015342741,-1.0202506632940331
0.27424749163879597,-2.2378825003221783,-0.0584082224349336,0.2840544442710255,-0.48789343928924644,1.9825584252942088,-1.1558110556185948
0.2809364548494983,-2.219013927143759,-0.07101454452064594,0.30547853181962986,-0.5250839579066325,2.2029774941881217,-1.2839501821887302
0.28762541806020064,-2.1987608189266385,-0.08783321476060554,0.3290326928038635,-0.5659863652122765,2.395266372685262,-1.3969182289410533
0.29431438127090304,-2.179764702003383,-0.10173972184174891,0.341392686131603,-0.5874296934247726,2.621576451586888,-1.531017874149132
0.3010033444816054,-2.162911381443551,-0.10998805776153427,0.332338906004272,-0.5716463382137124,2.990854702493344,-1.749398235996214
0.3076923076923077,-2.147014207776574,-0.1158348080441807,0.3065945125486622,-0.5267763769934625,3.5338843327571854,-2.070430611620665
0.31438127090301005,-2.1283463979283606,-0.1260872347476815,0.2887680890188178,-0.49508108695739705,4.27348841803806,-2.512959266774353
0.3210702341137124,-2.1080582059904627,-0.14948313378230918,0.310643417739496,-0.5309045569676578,5.18518771556139,-3.0740189384551124
0.3277591973244147,-2.0863814088930352,-0.20558670482663668,0.47342861660823243,-0.7949392310173454,6.429338108111182,-3.8818422033709394
0.33444816053511706,-2.0633291455716045,-0.4207734721895039,1.7726402817552818,-3.4028770731521973,9.672296749706852,-5.370336811374177
0.3411371237458194,-2.0398904903541792,-1.1859614888431758,-1.8599659805559483,6.252797884825146,17.98867521645036,-8.766398054103156
0.34782608695652173,-2.019289765643646,-1.3594852110530948,-16.424538963361226,39.23108973053723,19.13149863777109,-8.390545544061023
0.35451505016722407,-2.0008974707008376,-0.07322792703782646,-2.1111223455298265,3.92300075407568,6.861913349360972,-3.6295547913438226
0.3612040133779264,-1.9816254102392858,0.0949449035556895,-0.6672180544242224,1.322518852488295,3.384078541212643,-1.5647773971646304
0.36789297658862874,-1.9615143341211272,0.1715898512597514,-0.3075762447400437,0.5905652970262638,1.529848608929468,-0.6387196190469503
0.3745819397993311,-1.9389342392443603,0.23103298265214822,-0.14658355431496783,0.27104375969993205,0.5349186326897616,-0.22605331525786654
0.38127090301003347,-1.9134350242014615,0.28763457342324755,-0.047118561225745356,0.08634810790187933,-0.12518347505301622,0.09618631016233788
0.3879598662207358,-1.8923325365862511,0.3310968890077378,-0.011781088434258798,0.021564914486459655,-0.5570400960505708,0.32466572624712664
0.39464882943143814,-1.8750718941732347,0.36463649080609134,-0.011371449364097654,0.01971039798193879,-0.9355147377184017,0.5325482970593216
0.4013377926421405,-1.858700546310527,0.39827717677597985,-0.026418957288293868,0.044895858813266395,-1.2834493506168199,0.7282354559904627
0.4080267558528428,-1.843440253905757,0.43253792795892426,-0.05258158472868736,0.08565762700681359,-1.5003901528100148,0.868801084794619
0.41471571906354515,-1.8277105257204904,0.4720952138091238,-0.07987412308468264,0.13393136873803735,-1.6818909551487873,0.9740569066497788
0.4214046822742475,-1.8119352212573239,0.5165212214219149,-0.10878817575475255,0.1857969960709799,-1.858657943889391,1.0744393195427289
0.4280936454849498,-1.796328499958804,0.5660664459940175,-0.139146187900183,0.2393243399514867,-2.0413190911398806,1.1803343425689266
0.43478260869565216,-1.781093846580839,0.6227858884068799,-0.1698029217532976,0.2931732966618542,-2.2264527152828593,1.2877826795822787
0.4414715719063545,-1.7674760303475927,0.6798788073514879,-0.19689931350881698,0.3407078915132999,-2.378688601078689,1.3761261056234408
0.44816053511705684,-1.7545338621839284,0.7396518092122377,-0.22263249783092,0.38581948142944555,-2.512130651492201,1.453569743542653
0.45484949832775917,-1.742464376453814,0.8061831772034538,-0.24676767390175292,0.42808314060445485,-2.614706804256305,1.513126035104113
0.46153846153846156,-1.7309742081916941,0.8839465878266217,-0.27048255770169455,0.46956247727333444,-2.7007981967713155,1.563126864124446
0.4682274247491639,-1.719913155498521,0.9700298655877958,-0.2938861200468009,0.510460845790812,-2.7746788971114023,1.606049712639413
0.47491638795986624,-1.7100651536862588,1.0831492077367477,-0.31595349636625747,0.5489648315357776,-2.8249780732233827,1.6353551583898542
0.4816053511705686,-1.700699040963095,1.2070087295810854,-0.3374900676907226,0.5865176395920282,-2.865909398894252,1.6592510389544108
0.4882943143812709,-1.6924592211858658,1.3595980917557342,-0.3556557283312421,0.6181792158295583,-2.891088957817647,1.6740709750339862
0.49498327759197325,-1.6852568458866024,1.5386509191514894,-0.3707163951178997,0.644414294510828,-2.9017593399861337,1.6805309293501542
0.5016722408026756,-1.6780544705873388,1.7177037465472447,-0.38577706190455735,0.6706493731920975,-2.9124297221546205,1.6869908836663223
0.5083612040133779,-1.668041962798225,1.8284686157688004,-0.40098729522127463,0.6971673039521468,-2.8982577132978014,1.679565934666257
0.5150501672240803,-1.6566195578852858,1.9049721125570434,-0.4162725689217864,0.7238271470005951,-2.8716218025495133,1.6651746645689278
0.5217391304347826,-1.6444838951810314,1.961416801338436,-0.4282228036406515,0.7447456095418834,-2.7699692378199874,1.6085172483421648
0.5284280936454849,-1.6322543283755517,2.0121300600529737,-0.43850778756379083,0.7628324353957266,-2.6565083807256227,1.5457250791246477
0.5351170568561873,-1.6200966390692098,2.0514293145892535,-0.44379841840449236,0.7724741116127564,-2.5422085923009528,1.4847134643723057
0.5418060200668896,-1.6074538865063188,2.0868622048821064,-0.45110796536713005,0.7861528017244962,-2.522212860185213,1.4817218667659406
0.5484949832775919,-1.5943180390301464,2.118364711837143,-0.46046985757882103,0.8039353504349902,-2.598082666924293,1.537710979277114
0.5551839464882943,-1.5806902283591069,2.141738882198656,-0.4639854410520204,0.8150731404000665,-2.751537493054263,1.6545510201373215
0.5618729096989966,-1.5674996839869362,2.163247952532167,-0.464227623526541,0.8248310930570389,-2.8956268888941907,1.7727083516417523
0.568561872909699,-1.5549475142995297,2.1830598336060962,-0.4606466435146813,0.8333967452583293,-3.0193187650973035,1.8865370117879903
0.5752508361204013,-1.5426589891293552,2.197412298584788,-0.4239752875380256,0.800469299764244,-3.15120585616937,2.01203048872923
0.5819397993311036,-1.530244784002212,2.2037135460823376,-0.3643681365266214,0.7272653928875246,-3.308386951993153,2.1336394485865924
0.5886287625418061,-1.5161598029338188,2.154060126226028,-0.18544317831685794,0.4065594267484356,-3.661826569383151,2.195572165115024
0.5953177257525084,-1.5025937693588198,2.1132650489828326,0.42157979572358023,-0.6710339299982326,-4.292347263799558,2.4977288751092184
0.6020066889632107,-1.4894900795950863,2.101552113215432,1.6503375038912744,-2.831699539059334,-5.159426050573726,2.9839365438178427
0.6086956521739131,-1.4780289632704195,2.3140716157308026,6.459288027041806,-11.17252111421642,-6.808150776520834,3.953007699608947
0.6153846153846154,-1.4672958444576136,3.0643912265355375,7.987237453294901,-13.828057991611384,-7.362137091620382,4.287247683851183
0.6220735785953178,-1.458232793572229,5.0484550433084845,1.9883827181502198,-3.4412266228293547,-5.404730882590283,3.165148653663511
0.6287625418060201,-1.4491352586375683,6.870931376540214,-4.007173478227346,6.939939090850387,-3.6948754470628584,2.18585497456244
0.6354515050167224,-1.4390873478352164,4.240077891995638,-9.911822379530033,17.164960094238815,-8.807486807188205,5.142258010298512
0.6421404682274248,-1.4290394370328647,1.6092244074510615,-15.81647128083272,27.389981097627242,-13.920098167313554,8.098661046034582
0.6488294314381271,-1.4138731190461333,0.7137033777998343,-20.064328690467622,34.74570503446109,-12.736659246498176,7.4185258076607985
0.6555183946488294,-1.3977332345325517,-0.8078472155289012,-10.818409788167727,18.853934401539558,-6.838335482553265,3.5498704726973362
0.6622073578595318,-1.3807908437094292,-1.5319689429222776,15.051131945355678,-25.90774984127322,-3.378099529065617,1.3902685543791315
0.6688963210702341,-1.3634944733016212,-0.5632719022471037,39.8944668360076,-69.07497853498252,-5.596959456854485,3.2102861394419437
0.6755852842809364,-1.346409969693735,0.3128994171664143,14.333385779273334,-24.816936244424962,-1.4627183497804028,0.8888264720625674
0.6822742474916388,-1.3282619418299468,0.3432578532324387,6.310818098060739,-10.928020122761943,1.5177792218988873,-0.8044391035574324
0.6889632107023411,-1.3096385087493725,0.2937613538270988,3.3243940167684647,-5.759263852973826,3.3571374380187935,-1.8556698404029142
0.6956521739130435,-1.2907248009922816,0.21186059217223732,2.229804686775378,-3.8659748093970316,4.589831771061736,-2.5677882715910596
0.7023411371237458,-1.2704764067496033,0.12456723896025257,1.8972077102991833,-3.297580350669264,5.375486696488693,-3.0272602373733077
0.7090301003344481,-1.2461083652846254,0.06761967979239253,2.104604318264802,-3.6438791393610637,5.802122756572276,-3.300790988000312
0.7157190635451505,-1.2211649195648364,-0.005202946779575891,3.2052387793042616,-5.549021002533831,6.10485660684066,-3.4830974091266826
0.7224080267558528,-1.1975102450491328,-0.15583945327300733,6.532149151359079,-11.311968934704113,6.470130829977693,-3.70338818769822
0.7290969899665551,-1.1757962724425184,-0.5573713274137282,17.12750946364793,-29.66380089680706,6.600338254260275,-3.786911809593355
0.7357859531772575,-1.155910860354471,-1.3979199687714154,22.11073361077883,-38.294598355377275,4.009756084065125,-2.298026805199739
0.7424749163879598,-1.1356692357922482,-1.6432661301550837,-7.332804622667497,12.70275998069912,-1.251012074968369,0.7225120016805961
0.7491638795986622,-1.1145204963682418,0.11051498267544982,-20.074150469918763,34.771809183115444,-1.1015232647924194,0.6265307672460043
0.7558528428093646,-1.0924244752412242,0.35494108279003,-5.232401230639483,9.065847623188708,-3.255112045181939,1.862471103226234
0.7625418060200669,-1.0699176900016893,0.4436735134520764,-2.0120530970194586,3.489006217455465,-3.8092669580348413,2.178158649150665
0.7692307692307693,-1.047272917232301,0.4962481230484982,-0.9361428089583026,1.6266170765140966,-3.8629563191174543,2.2078637134188006
0.7759197324414716,-1.0246885081522534,0.5336874947500277,-0.4747500767289322,0.8286689060216758,-3.6994470107560136,2.1143467984245565
0.782608695652174,-1.0023228503793415,0.5616783841384315,-0.24251581971133787,0.4275867464149442,-3.4172032205471745,1.9535601560070648
0.7892976588628763,-0.9804449415494298,0.5814130649302657,-0.11129908741413687,0.20132284301548906,-3.0611355846946293,1.7507062351600085
0.7959866220735786,-0.9594191433750388,0.5911950984819327,-0.028754289792006067,0.059146235475927,-2.6576847609490137,1.5205600858821735
0.802675585284281,-0.9405744680271951,0.582757356508659,0.031183607807025053,-0.04413447575097228,-2.258119978483208,1.292321634926389
0.8093645484949833,-0.9208168031246879,0.5756141552221926,0.07511047663807767,-0.11983197958163022,-1.9063685884384254,1.0916630656068227
0.8160535117056856,-0.8995209982937867,0.5738432288527395,0.09629595698665488,-0.1563050218430925,-1.6068813559548885,0.9211528739392407
0.822742474916388,-0.8771039607377893,0.5751199924362717,0.09759223194677029,-0.15851676203336898,-1.3554986952091161,0.7782687077278543
0.8294314381270903,-0.8538953782754762,0.5780761390106242,0.08626698581775384,-0.13905278978858823,-1.1476777149203334,0.660306977055177
0.8361204013377926,-0.8299019445141369,0.5823343306123967,0.0670249256738643,-0.10606536302738538,-0.9796273215654195,0.5650321678738168
0.842809364548495,-0.8052878752275978,0.587684598340737,0.04380675208419434,-0.06635522532758374,-0.8423685652275178,0.48727469780944926
0.8494983277591973,-0.7801338644906954,0.5942545998437814,0.018563534982985547,-0.023311814880542375,-0.7295353953683515,0.42338657792993406
0.8561872909698997,-0.7544280041218301,0.6019455471565494,-0.007704436698384149,0.021230948165367337,-0.6364478558903577,0.3706915707939192
0.862876254180602,-0.7282139559889828,0.6111093276531989,-0.03430973091827783,0.06550952189330901,-0.5607245766659285,0.32777351146791256
0.8695652173913043,-0.701474701558173,0.6219624502864085,-0.060728575037675106,0.11396132494774422,-0.4958241708280289,0.29203468333755594
0.8762541806020067,-0.6743476741322375,0.6344030858047855,-0.08625890555590188,0.16982354215245277,-0.4348260195284489,0.26035435226386733
0.882943143812709,-0.6467484315954124,0.6489340060846556,-0.10910346557826942,0.21829487533359546,-0.38727310948465765,0.23672849228293605
0.8896321070234113,-0.6187017141682729,0.6661329004718738,-0.13392418171160597,0.2645224319387158,-0.34835183219319704,0.2161511967919811
0.8963210702341137,-0.5903469309368756,0.6859774429307554,-0.17506421845403752,0.29907671076992487,-0.3250950327342652,0.1900142044192571
0.903010033444816,-0.561693490596806,0.7093839898580779,-0.1989238892356048,0.339445618667213,-0.29743207046566383,0.17418338212989007
0.9096989966555183,-0.5327808554269857,0.7372586778087533,-0.21987591375561727,0.3746686687989568,-0.27353036550167337,0.16049883534064927
0.9163879598662207,-0.5037638494497321,0.7698775228980032,-0.2366005000105534,0.4024136024914165,-0.25245653171757654,0.14843433254884528
0.9230769230769231,-0.4747861675806925,0.8097691616644124,-0.24489321612568665,0.4152302113581639,-0.23448787614553454,0.13815560286218478
0.9297658862876255,-0.4460583733397194,0.8570216665133336,-0.24251586864806784,0.4091079555542855,-0.21929496645402066,0.1294589616866343
0.9364548494983278,-0.41802059825646204,0.9144142361449523,-0.22399334533156715,0.37430731014220814,-0.2095202983375203,0.12345289639214083
0.9431438127090301,-0.3914687581664094,0.9833011828795094,-0.17594642749526018,0.29667278284100096,-0.20220490687527465,0.11726812079547064
0.9498327759197325,-0.3678366433121166,1.0610330633496303,-0.105220625864287,0.18224748903903287,-0.20055789726158105,0.1157920201071928
0.9565217391304348,-0.3512560349008444,1.1192682818423805,-0.06547344724391732,0.11340336748627232,-0.21632000630893986,0.12489231043806019
