# n,energy,berry,bcd_x,bcd_y,qmd_x,qmd_y
0.000002666666666666667,-3.0265433927377536,-0.00000000000000000000000000000068717180415736575,0,0,0,0
0.006666666666666667,-3.0026719426497683,-0.00000016373080881806534,0.0000000000021962295879774314,0.0000000005643389361897891,0.00000000008552918600907655,-0.0000000002430004357597106
0.013333333333333334,-2.9789684330284367,-0.0000010836578728434834,-0.00000000032327970456337434,0.000000002868125846167673,0.000000000036589341454628366,-0.000000000760461403538753
0.02,-2.955499902946916,-0.0000035600163440375013,-0.000000000812031139764115,0.000000006556813786107466,-0.0000000005931366143654549,-0.0000000017114438015377494
0.02666666666666667,-2.9321349193444863,-0.000008527832456786404,-0.0000000020644188225184625,0.000000012836687974131036,-0.0000000007779961880232056,-0.000000002498701980268228
0.03333333333333333,-2.9089369317031832,-0.000016784309682637543,-0.0000000020328411260671525,0.000000025269134604752126,-0.0000000018111254281861284,-0.0000000028488281209727883
0.04,-2.885908969673039,-0.00003024808967973187,-0.0000000028852182031252603,0.000000041157383957104716,-0.000000004326752302938938,-0.000000005417122322876408
0.04666666666666667,-2.8631391422276353,-0.00004992727540445693,-0.000000005160525662141616,0.00000005707713336166903,-0.000000004831653438177322,-0.000000005478603123291171
0.05333333333333334,-2.8404947708884154,-0.00007740785154628898,-0.00000000888379025363049,0.00000007726079293340468,-0.000000006667602327248549,-0.00000000688841159761124
0.06,-2.8180105283802197,-0.00011452623145069721,-0.000000010699103944979667,0.00000010694169037720256,-0.000000009849821311402544,-0.000000007816428370737963
0.06666666666666667,-2.7956793506709605,-0.00016296850396831658,-0.000000017866415372964216,0.0000001331907630548653,-0.00000001620456116377239,-0.000000009280192794077544
0.07333333333333333,-2.773554790755133,-0.00022301850775334787,-0.000000022776917665687676,0.00000017333205079874728,-0.000000019050113335433324,-0.000000011510490252953912
0.08,-2.7515888330048055,-0.00029791934808324127,-0.000000021320429321395312,0.00000022458925478927257,-0.000000020061530858117955,-0.000000013756939338430622
0.08666666666666667,-2.7297784584510336,-0.00039318295859523466,-0.000000027274545859478632,0.0000002776200390405975,-0.00000003082707763692634,-0.000000016091810827088903
0.09333333333333334,-2.7082850858506067,-0.0005126486262977656,-0.00000004943110881585106,0.00000031558116309743103,-0.00000004163767128215701,-0.000000013725096869209295
0.1,-2.6867732621333174,-0.0006556282084159832,-0.00000004273283072944167,0.0000003965794834007762,-0.000000045614913050020793,-0.000000019543902562297443
0.10666666666666667,-2.665584989854048,-0.0008250934265050751,-0.00000006330272494530771,0.0000004645054543043341,-0.000000055676471575576255,-0.000000020138454143073037
0.11333333333333333,-2.644386543733781,-0.0010283726208987441,-0.0000000618044113556546,0.000000552671745779964,-0.00000007213927041356337,-0.00000002706928789126724
0.12,-2.6234438143687178,-0.0012685180461110362,-0.00000008096919806715512,0.0000006280066381006999,-0.00000008947376749001368,-0.00000002637068059828422
0.12666666666666668,-2.6027024702591914,-0.0015485851684777735,-0.00000009145392572524803,0.0000007444523851354638,-0.00000009190805756181431,-0.000000023529454941499767
0.13333333333333333,-2.5821217893552686,-0.00187622930407886,-0.00000010423427131317324,0.0000008528536835113722,-0.00000010347977926537433,-0.000000024834115353465786
0.14,-2.5616649096956774,-0.002261593851643862,-0.0000001208520879044388,0.000000949761230428646,-0.00000012686270561273602,-0.00000003233666719945111
0.14666666666666667,-2.5414317774993576,-0.0027004777688503486,-0.0000001473908139744282,0.000001057293508584934,-0.000000149167058251223,-0.000000043395984595640016
0.15333333333333332,-2.52134813197704,-0.0032058718433453934,-0.00000016633988472466172,0.000001195194075431656,-0.00000017649475819200198,-0.00000004735947204925823
0.16,-2.5014127829508435,-0.0037872322519055352,-0.00000017766842437125497,0.0000013443139496810025,-0.0000001941977481408865,-0.00000005085368794011223
0.16666666666666666,-2.481670342751422,-0.004455445864750975,-0.00000019988310633984008,0.0000015088714427116375,-0.00000021073711431906421,-0.00000005802928881487968
0.17333333333333334,-2.462053523678115,-0.005217247280435393,-0.00000022878237002502557,0.0000016803510553834093,-0.00000022695653716691655,-0.000000057614319648099366
0.18,-2.442617580469109,-0.006075428301161396,-0.00000025112748342369676,0.0000018757427052210245,-0.0000002651168887600934,-0.00000005994034631799418
0.18666666666666668,-2.4233520278463465,-0.007063846741395263,-0.0000002766244880083786,0.0000020752928346403793,-0.000000293896065965132,-0.00000007534503263383634
0.19333333333333333,-2.404264277353264,-0.008186996196637961,-0.00000031902506956112875,0.000002278715514565731,-0.00000032677588497155443,-0.00000008089108200339223
0.2,-2.385383696873465,-0.009454966950666764,-0.0000003531832479950636,0.000002512927498814188,-0.0000003555833045996142,-0.00000007710733832619462
0.20666666666666667,-2.3666356075950157,-0.01088329422836161,-0.0000003734531801954447,0.0000027711674058726464,-0.0000003654240725304043,-0.00000007617492545853189
0.21333333333333335,-2.3480618176674466,-0.012486929596504326,-0.00000037856657880248077,0.0000030596171780405396,-0.00000038972132946461994,-0.00000009415092216477164
0.22,-2.3297501741382285,-0.014292430723482715,-0.0000003879613726037982,0.0000033384594168521148,-0.0000004348016186059254,-0.00000012641234709890629
0.22666666666666666,-2.31162625170637,-0.01632463515124286,-0.00000045585737715064975,0.0000035512158251574944,-0.00000047019921396703736,-0.00000013792027735759588
0.23333333333333334,-2.29361980215261,-0.018615510387361516,-0.0000005374444343389348,0.0000038085962345841304,-0.000000498117269973711,-0.00000014148984502331196
0.24,-2.2756819227029816,-0.021224926800716228,-0.00021353486681899406,-0.00024640209680438564,-0.00015210034232662973,-0.00012910422846672268
0.24666666666666667,-2.2580791237861924,-0.02410188132200748,-0.0025292344275554095,-0.002969941782322673,-0.0017994257458302794,-0.0015303885892600886
0.25333333333333335,-2.2406412045748962,-0.02734176951182209,-0.0011755275360648782,-0.0011524337784973174,-0.0007027943941259748,-0.0007137275337809443
0.26,-2.2234652819900322,-0.03101459282563576,-0.0008292234603497834,-0.0007309998336319642,-0.000448431903451141,-0.0005044152869376577
0.26666666666666666,-2.2064427806446516,-0.03514356785871107,-0.0007547508166819843,-0.000658708576749706,-0.00040409741011165944,-0.0004583768043408277
0.2733333333333333,-2.189605738586855,-0.03974966160996084,-0.0007234426200052669,-0.0006282618661616281,-0.0003844404115317639,-0.0004378028944029624
0.28,-2.173004119759487,-0.044881911920086275,-0.0007115165717920205,-0.0006158829793573503,-0.0003751277603042566,-0.0004282625717135293
0.2866666666666667,-2.1566236746131313,-0.05062376955233801,-0.0007106532959548258,-0.0006134897291361113,-0.0003712379539741407,-0.0004246065994327153
0.29333333333333333,-2.1403138929383063,-0.057186797912748374,-0.0007154292697082752,-0.0006162834941724085,-0.0003702955145639136,-0.0004242419202041103
0.3,-2.1245159358921337,-0.06458228237863027,-0.0007256687728313555,-0.0006235847591554405,-0.0003711676896960728,-0.00042630317558481064
0.30666666666666664,-2.1088237925267608,-0.07297010683377815,-0.0007380379076101804,-0.0006335663212506048,-0.00037332657463559724,-0.00042930144840754535
0.31333333333333335,-2.0933750976174714,-0.08238492847629078,-0.0007519238090170037,-0.0006456376554237404,-0.0003763439879892948,-0.0004328774251499307
0.32,-2.078245132567656,-0.09284820452476046,-0.0007670017242924333,-0.0006592019467971428,-0.0003798138390853053,-0.00043683308668163623
0.32666666666666666,-2.063361087073057,-0.1049987176832173,-0.0007837181410303108,-0.0006737829514968914,-0.000383389230050107,-0.000441335176896707
0.3333333333333333,-2.0488473086390884,-0.11905897604464104,-0.0008017694325743128,-0.0006887134992016731,-0.00038641053240401335,-0.00044607952487333137
0.34,-2.0346641291982293,-0.13493442750155235,-0.0008195358111719337,-0.0007044673060079364,-0.0003895465115437213,-0.0004506674180211341
0.3466666666666667,-2.0208010369089275,-0.15261635148671943,-0.0008365262709996913,-0.0007211823513522762,-0.00039299163881953046,-0.00045497809336078507
0.35333333333333333,-2.0076107137441594,-0.17467605091982358,-0.0008550946060371271,-0.000738182719132097,-0.00039518667124587486,-0.0004595499604100969
0.36,-1.9948281730505848,-0.2002106988728808,-0.000872989074085002,-0.0007557409262929321,-0.0003972124094974479,-0.00046397338990742645
0.36666666666666664,-1.9824237093408046,-0.22896715783566896,-0.0008902587639315325,-0.0007738163362408282,-0.0003990811860464144,-0.00046825919499493015
0.37333333333333335,-1.971217092620423,-0.27082083786279937,-0.0009044299407633818,-0.0007954817989191959,-0.00039794072939965916,-0.00047259550790898616
0.38,-1.9608677796384504,-0.3210019388111639,-0.0008270854081384646,-0.0007392111435365197,-0.00044369753959907,-0.0005321627028129893
0.38666666666666666,-1.9546770373650053,-0.4109746674038062,-0.00025438665512633133,-0.0002585218803929245,-0.0007451938987025437,-0.0008914324492684877
0.3933333333333333,-1.9484862950915602,-0.5009473959964486,0.00031831209788580196,0.00022216738275067046,-0.0010466902578060175,-0.0012507021957239859
0.4,-1.9422955528181152,-0.5909201245890916,0.00089101085089794,0.0007028566458942697,-0.0013481866169094937,-0.0016099719421794876
0.4066666666666667,-1.932891791380619,-0.6548278171764461,0.002416043272897018,0.001982845684209115,-0.002161015486432533,-0.002578392779407571
0.41333333333333333,-1.9233910468778024,-0.7179487522125952,0.003969821318159016,0.0032869611090620425,-0.002989278622521239,-0.003565200478652381
0.42,-1.9126158363235906,-0.7698520830106983,0.006082321081343699,0.005056425580281441,-0.004133165698772509,-0.0049314342680282335
0.4266666666666667,-1.901601351741315,-0.8198423419763211,0.008298628420265915,0.0069129435269605225,-0.005337728538079834,-0.006370193802991192
0.43333333333333335,-1.8896784545612368,-0.863776243728212,0.010902232983293498,0.009098004291503238,-0.00678152299859396,-0.008092370178821615
0.44,-1.8774631980129008,-0.9053504986208087,0.013595063799381548,0.011362677939025088,-0.008292988627154049,-0.00989222977714089
0.44666666666666666,-1.864870979934797,-0.9438822784420811,0.01640294091978199,0.013730002629802084,-0.009891707922938234,-0.01179225235830293
0.4533333333333333,-1.8518417388013322,-0.9787764153862715,0.01919898193400484,0.016103648457967894,-0.011527223563735516,-0.013724584048537302
0.46,-1.8385627231028898,-1.0119172016390738,0.021912639070437865,0.018419203658108875,-0.013141468545304331,-0.015622972404116774
0.4666666666666667,-1.8249620505039412,-1.0429467471821443,0.02448614153796074,0.020632156919870342,-0.01470926743418406,-0.017454041896266217
0.47333333333333333,-1.8111384379372983,-1.071140853790766,0.02660231008979098,0.022492097515296423,-0.016058167021700438,-0.018997427159124333
0.48,-1.7970657000786001,-1.09776187631201,0.028335380449924733,0.0240472116009109,-0.01719793390623708,-0.020273429738794514
0.4866666666666667,-1.7827197115874693,-1.1227176404161539,0.029632165433735577,0.025246525545639137,-0.01808128090508226,-0.02122693116779282
0.49333333333333335,-1.7680875074563411,-1.145269738475616,0.030277480350007546,0.025867949850406104,-0.018489270379958005,-0.021608581563142222
0.5,-1.7534818538371406,-1.165626576490078,0.04033625737487029,0.027496809879032517,-0.019214924318946745,-0.027186276765544932
0.5066666666666667,-1.7386778310478617,-1.1844788917801359,0.03225319591461033,0.019161533251625916,-0.013571464079640903,-0.021565539461620688
0.5133333333333333,-1.7235795714526387,-1.2018455330722284,-0.0013299927180019972,-0.0011587981691381732,-0.0004283327424483275,-0.0005108104579115048
0.52,-1.7084534532580125,-1.2166645680205692,-0.001359235437655959,-0.0011829819021041798,-0.00042820018791753364,-0.0005105063809783298
0.5266666666666666,-1.6931950533767783,-1.2296495059053363,-0.0013881413701327151,-0.0012077830465192776,-0.0004274303866643461,-0.0005096980970201589
0.5333333333333333,-1.6778795462089855,-1.2406787862024482,-0.0014170341654613254,-0.001232767633737453,-0.00042642724702868353,-0.0005086013909798173
0.54,-1.6624865139489882,-1.249716089420599,-0.0014461588603037214,-0.0012579888926925042,-0.00042522716748463963,-0.0005071936182823275
0.5466666666666666,-1.6469135773194208,-1.2568415508000355,-0.0014758438989105548,-0.00128389227837422,-0.0004236186908128033,-0.0005052695893753865
0.5533333333333333,-1.6314431468454849,-1.2607351386654486,-0.001506132527805016,-0.0013097935028909206,-0.0004213841463178427,-0.0005031607719439441
0.56,-1.615875120696785,-1.2625969246877198,-0.0015365289524205848,-0.001335682194975785,-0.0004190303064739582,-0.0005006566401948452
0.5666666666666667,-1.6002699228613586,-1.2620302364210092,-0.001567081036660448,-0.0013618323069552929,-0.00041645184439503136,-0.000497418955752097
0.5733333333333334,-1.5846680063374567,-1.2587643222795677,-0.0015977373756984284,-0.001388284268729308,-0.00041356189107171176,-0.0004934543130851971
0.58,-1.569024643066515,-1.2524349374819819,-0.0016281204337597439,-0.0014144444215335756,-0.00041032107667431355,-0.0004896090218485359
0.5866666666666667,-1.5534259235096084,-1.2427324315476231,-0.0016593420722298673,-0.0014413926973676713,-0.0004062309869270198,-0.00048524123042817076
0.5933333333333334,-1.537879014637332,-1.2295872502735423,-0.00169012232872628,-0.0014678306929404215,-0.0004022605859723884,-0.00048044644867626545
0.6,-1.522331284494021,-1.212994061945704,-0.0017205369086231127,-0.0014941621303698675,-0.000398008578383933,-0.00047514382352786583
0.6066666666666667,-1.5067648759333068,-1.1928697408776092,-0.0017508570278769614,-0.0015208878698138421,-0.00039304277843500436,-0.00046934959467705384
0.6133333333333333,-1.4914484034197553,-1.167497255683369,-0.0017813027200420527,-0.0015475680066408246,-0.00038789085867497157,-0.0004637365976456367
0.62,-1.4761764163729536,-1.137736336808811,-0.0018113542644824668,-0.0015739507983141207,-0.0003827948848671421,-0.0004572863443975061
0.6266666666666667,-1.4609989714816518,-1.1027362655391397,-0.0018405808164535203,-0.0015996410373597802,-0.00037702631669359965,-0.00045044370125429
0.6333333333333333,-1.4459300650006859,-1.0621889775955062,-0.0018693321736333905,-0.001624779038359931,-0.0003708268940655948,-0.00044326235562761957
0.64,-1.43097489580568,-1.0155987558691872,-0.0018987785493534794,-0.0016499754829590073,-0.00036531619627283725,-0.0004355290894761926
0.6466666666666666,-1.4163317564596667,-0.960832198466268,-0.0019275527433613073,-0.0016751964889489372,-0.00035936789706474224,-0.0004279685534358856
0.6533333333333333,-1.4019066417179855,-0.8987592389182903,-0.001954707999263158,-0.0016984429353983628,-0.0003523518913413176,-0.00042009838066786685
0.66,-1.3877061703321985,-0.8292413884604514,-0.0019808104586359157,-0.0017197641176906807,-0.0003446721871368813,-0.00041191112236180525
0.6666666666666666,-1.3738736355583139,-0.7488277899041516,-0.002007949347622364,-0.0017395712399181195,-0.00033782941948992245,-0.0004034875467069364
0.6733333333333333,-1.360461115962075,-0.6557909953104482,-0.0020337076339386217,-0.001758755974470964,-0.0003306209720166703,-0.00039510749710171223
0.68,-1.3473962499123884,-0.5527188115220512,-0.0020591828437121953,-0.0017767674386999282,-0.00032317171833812805,-0.00038711792049233424
0.6866666666666666,-1.3349164125386968,-0.4332563383317993,-0.002085216499332153,-0.0017920123519250166,-0.0003153917158035804,-0.0003802120828119193
0.6933333333333334,-1.3237369572417919,-0.2909437505162698,-0.0021095867808626914,-0.0017909095240977405,-0.0003009722313691068,-0.00037515081545388366
0.7,-1.3131767863528758,-0.13774919196245877,-0.0021331649093355876,-0.0017820213681578386,-0.00028339080884647874,-0.0003709679927164556
0.7066666666666667,-1.302861899797831,0.040160051990219076,-0.002154030670237802,-0.0018005030568182285,-0.00027526245527514784,-0.0003638987741147034
0.7133333333333334,-1.292604436960095,0.22385527128556587,-0.002174261436535353,-0.0018253923223275328,-0.00026934716745731713,-0.0003561538190012121
0.72,-1.2803823955829898,0.39545064119945506,-0.0021992938207349927,-0.0018562606743182401,-0.00026949383074346267,-0.00034870925374878826
0.7266666666666667,-1.267485573269821,0.5677741914080133,-0.0022228421120510226,-0.0018879411694028945,-0.0002697826576329143,-0.000339816325009484
0.7333333333333333,-1.2536238641396917,0.7451853375851998,-0.002241672414766226,-0.0019197544177240974,-0.0002686675829418125,-0.00032756694850576905
0.74,-1.2390623776934764,0.9296548690148692,-0.002266675278090297,-0.001960531015396482,-0.0002700520365952015,-0.00031578839240787785
0.7466666666666667,-1.2239565508532517,1.1208917620052705,-0.0022929647816872217,-0.002005630850950385,-0.0002726409353010316,-0.00030469543424217765
0.7533333333333333,-1.208258647297638,1.322654566018937,-0.002320241178357684,-0.0020549064958893287,-0.0002756345732817794,-0.00029393064469154334
0.76,-1.1919668268320047,1.5406245007189574,-0.002347660002073968,-0.002107066503704611,-0.00027665483584574877,-0.0002817996606713091
0.7666666666666667,-1.1751392301206487,1.7759552971821582,-0.0023496892923830243,-0.0021383277179202165,-0.0002597610360501356,-0.0002556154007449584
0.7733333333333333,-1.1567737238901266,1.9870191774545842,-0.002357847472844101,-0.0020761707674012727,-0.00020176165526039787,-0.0002318232034353591
0.78,-1.1359869203479387,2.0503919808431395,-0.002382067488579435,-0.0020814221920787673,-0.00017553882003860078,-0.0002123178736100796
0.7866666666666666,-1.1142894723551826,2.0807705973476116,-0.002405634862395746,-0.002101466299742657,-0.0001560003948101073,-0.00019069276727745016
0.7933333333333333,-1.0919798750021146,2.1102238844160834,-0.002430179420801157,-0.0021217256637594056,-0.0001360298460243176,-0.0001700446412688767
0.8,-1.0692540215874644,2.138882583457151,-0.0024517990617334323,-0.002138674013946134,-0.00011569862107526763,-0.0001480362098867056
0.8066666666666666,-1.0459769341459657,2.1665552513752417,-0.002469526403968617,-0.002153468088383469,-0.00009473469446990762,-0.00012472840138711178
0.8133333333333334,-1.0223920770619144,2.193437591742706,-0.0024836882128704543,-0.0021659276888581942,-0.00007285082066037899,-0.00010115828024077856
0.82,-0.998205344912118,2.219435876174092,-0.0024958523647724508,-0.0021732353697572035,-0.00005124731257304432,-0.00007651612996531413
0.8266666666666667,-0.9735092085488725,2.245501368264186,-0.002502594963455906,-0.002178814302902659,-0.000028249543821570258,-0.0000523785487619061
0.8333333333333334,-0.9485020730166372,2.270825998736187,-0.0025034432584917572,-0.00217849603566104,-0.000005809324401525856,-0.000026885668113177478
0.84,-0.9229049635315972,2.2960126251422186,-0.0024975331208381053,-0.0021723843170164316,0.000017045492003796682,-0.0000006634855668354786
0.8466666666666667,-0.8967123285327296,2.321102570238578,-0.002486297394050025,-0.0021612941251315564,0.000039814146029522176,0.000024884610489843056
0.8533333333333334,-0.8701022476727108,2.345853268081104,-0.0024664569402639874,-0.0021437230840191733,0.00006323040753728701,0.000049346583997011975
0.86,-0.8431749477704176,2.3701219624879943,-0.0024376006962809793,-0.00211867125512301,0.00008613403792385711,0.00007334612951530691
0.8666666666666667,-0.8156003929072484,2.3946717219508638,-0.0023992449863358047,-0.0020828915728374827,0.00010712325823559875,0.00009772532076668618
0.8733333333333333,-0.7875012693487918,2.4193323050929956,-0.002347257958613107,-0.002037190969914364,0.00012801643160420282,0.00011989151689022655
