# n,energy,berry,bcd_x,bcd_y,qmd_x,qmd_y
0.00000016666666666666665,-3.1423777346760198,-0.00000003782045005916527,0,0,0,0
0.006688963210702341,-3.095066510967308,-0.0015593703243402355,0.0000000000000000004837831178832084,-0.0000000000000000029095904407985193,0.0000000000000000014315557870350005,-0.000000000000000000569274039173081
0.013377926421404682,-3.048535240264154,-0.003177644679445775,-0.000000000000000002995865171764848,-0.0000000000000000022697835772420982,0.0000000000000000005006222872231951,0.000000000000000002118899618126442
0.020066889632107024,-3.0027553908756333,-0.004827730617807269,0.000000000000000005791677572014498,-0.00000000000000001199465731856764,0.000000000000000014224610851331492,0.0000000000000000010283595667670192
0.026755852842809364,-2.9577438049246503,-0.006484072401983073,-0.0000000000000000004941778036833219,-0.000000000000000015025196111024907,0.0000000000000000005940835718047073,0.000000000000000002177609864826892
0.033444816053511704,-2.915033596239713,-0.008038852809441275,-0.000000000000000002855120180412951,-0.000000000000000011261761411565088,-0.0000000000000000053781868257801505,0.0000000000000000003480735886887904
0.04013377926421405,-2.88999900279871,-0.008582437905214998,-0.000000000000000011291895593898117,-0.0000000000000000029816275047094473,0.00000000000000000031196390285887947,0.000000000000000003165881358631557
0.046822742474916385,-2.8674480499052595,-0.008976831016409033,0.0000000000000000018258635496822647,-0.000000000000000016576548537605874,0.000000000000000013803238736016195,0.000000000000000004119726263227169
0.05351170568561873,-2.8450865666037557,-0.009352810027651325,0.000000000000000011932964787006181,-0.000000000000000024967680437086554,0.000000000000000004563185856685151,-0.000000000000000006563341425791261
0.06020066889632107,-2.8229034664292794,-0.00971139259065569,0.000012045923583123304,-0.00000017581522509669316,0.0001335224815347669,-0.00011257482547256759
0.06688963210702341,-2.8008927895272273,-0.010052835681790632,0.00004057120703345411,-0.0000001699729387507625,0.00018096742000362108,-0.0001268531367487148
0.07357859531772576,-2.7790892745046016,-0.010382364758564862,0.00007138713883440476,0.0000006851250947169673,0.00017124928834716334,-0.00008750703479059136
0.0802675585284281,-2.7574746595102315,-0.010708207669655842,0.00010384763723648717,0.0000023361362259756904,0.00019136113951863997,-0.00007825116218554504
0.08695652173913043,-2.7360547535961874,-0.0110316597508589,0.00014095581029307023,0.000004697331211549307,0.00021629271280512366,-0.00007362454506662313
0.09364548494983277,-2.714803801926433,-0.01136291114264507,0.00018421316741253684,0.00000778475027623259,0.00024137422185782818,-0.00007011394542151946
0.10033444816053512,-2.6937381627283057,-0.011706112242741052,0.00023471433483876917,0.000011702187894179706,0.0002625717675365685,-0.00006643154624525807
0.10702341137123746,-2.672903922232664,-0.012091806743141082,0.0002934019787788429,0.00001655392187989681,0.00027464588413120755,-0.00006203270802563799
0.11371237458193979,-2.6522396947479963,-0.012517240179537514,0.00036142022082899007,0.000022502866416257196,0.00027028909715332515,-0.0000568478188415454
0.12040133779264214,-2.63176943408762,-0.013018326791429075,0.00043951542320882776,0.00002972846726440517,0.00023894988363677293,-0.00005139924590825722
0.12709030100334448,-2.6115182768693397,-0.01362580921097285,0.0005282472730363919,0.000038450905447363604,0.00016602715628619721,-0.00004707260298151331
0.13377926421404682,-2.591480929897036,-0.014391553745677946,0.0006278136315807696,0.00004894603961052351,0.00003147179268934099,-0.000046494695975274115
0.14046822742474915,-2.5716649272915135,-0.015363008453262439,0.0007277575093036155,0.00007494195720088684,-0.00018329554172507708,-0.00020319194147051602
0.14715719063545152,-2.552059025583172,-0.01660624364298532,0.000843025738529406,0.00009992498186870203,-0.000540759036953525,-0.0002200134563690397
0.15384615384615385,-2.5326898596865357,-0.018245212539507737,0.0009654255197610784,0.0001278020899816579,-0.0010629856757251232,-0.00026023787945845866
0.1605351170568562,-2.51357400242783,-0.020430622320262614,0.0010904099929186833,0.00016003150212200835,-0.0018005303079658686,-0.0003490435106080512
0.16722408026755853,-2.4947215755795384,-0.023363269886158416,0.001212902889846162,0.0001971261690534859,-0.002811570467721818,-0.0004982312516114279
0.17391304347826086,-2.476151764886165,-0.027317778363932708,0.0013262839091823205,0.00023944489847808548,-0.004153945340152674,-0.0007283742839894023
0.1806020066889632,-2.4578940625014627,-0.03274292113825546,0.001422885672166251,0.0002870510881992448,-0.005877224002811711,-0.0010632269509970877
0.18729096989966554,-2.4400114036711447,-0.04025267585657061,0.0014948070960551074,0.00033950357000417397,-0.00800869534162043,-0.0015250284659056455
0.1939799331103679,-2.422576698114245,-0.0506869259305969,0.001535347834064604,0.00039587956335588437,-0.010543237341875674,-0.002129525537624461
0.20066889632107024,-2.405632663140428,-0.06526720813550252,0.0015393642721365543,0.00045509129906680417,-0.013454291724774312,-0.002887031448776601
0.20735785953177258,-2.3898321520704564,-0.08999634857619908,0.0014942062573464058,0.0005135088942859205,-0.016638452454825155,-0.0038097710689584813
0.2140468227424749,-2.3753354937158755,-0.127861912569105,0.0014195476667925157,0.0005673141213671167,-0.019778957501695796,-0.00479173303456928
0.22073578595317725,-2.3607672739175247,-0.16743356600916565,0.0013160783772572279,0.0006206215761820061,-0.02307436198173506,-0.0058883360620810565
0.22742474916387959,-2.343857351334733,-0.19210671521836803,0.0011555622125126175,0.0006795348361327285,-0.027001388570232508,-0.0073049940890358355
0.23411371237458195,-2.3252762781763234,-0.20637174186078264,0.0009343377734753019,0.0007352766744752303,-0.031124721625085675,-0.008975626526959877
0.2408026755852843,-2.305618031360784,-0.21391190562658577,0.0006776691728180676,0.0007818943442847836,-0.03494711969992623,-0.010723638315706868
0.24749163879598662,-2.2849592730668444,-0.21530078381030324,0.0004069573996809461,0.0008157556802248211,-0.03806119291265574,-0.012392747202780623
0.25418060200668896,-2.263448998218342,-0.21081495931788607,0.00014984898432872674,0.0008359899571386986,-0.04008913417400262,-0.013791508649678293
0.2608695652173913,-2.2411443200216743,-0.20033812134267603,-0.00006735131323698889,0.0008459188205856874,-0.04076876662587189,-0.01473049272361974
0.26755852842809363,-2.2181553957952693,-0.18342241917540117,-0.00022147485238872703,0.000853797054065776,-0.03989761428088085,-0.014998665484234737
0.27424749163879597,-2.1951810875430127,-0.15539904375120706,-0.00030509010764691725,0.0008702007390291927,-0.03756073525951723,-0.014487536562097683
0.2809364548494983,-2.175413670826106,-0.09813139028001272,-0.00032207786855165804,0.0008978265864849233,-0.03431586394088076,-0.013314740365931338
0.28762541806020064,-2.15959279180948,-0.01431508472847674,-0.0002772327232914127,0.0009148717966443259,-0.031017054109775122,-0.011859313488558822
0.29431438127090304,-2.144268163233474,0.06403789539639769,0.0022973046762821366,-0.0006382051188087862,-0.04164695990559229,-0.0113400249180545
0.3010033444816054,-2.1294335734139067,0.1415669408830764,0.002203717334986459,-0.0006207898203655995,-0.041781400217945616,-0.009976011684184438
0.3076923076923077,-2.1153426251503045,0.22020644840082151,0.0011330380844457083,-0.000016180056192195568,-0.03692852008733173,-0.007844168944910423
0.31438127090301005,-2.102609981267195,0.30289073263915883,0.0009014206581935446,0.0001268917962026979,-0.032310073156249244,-0.004748915528354704
0.3210702341137124,-2.0888633971771338,0.3827124424610341,0.0006841455202090518,0.00013998228463028183,-0.026205398505844038,-0.0008357544060837874
0.3277591973244147,-2.0739794398929345,0.454943167829496,0.000506950637846642,0.00013545350211686624,-0.021120984754495552,0.0025951167628254267
0.33444816053511706,-2.0569728994204097,0.5063096318661167,0.0004423055039116357,0.0002934954609770491,-0.02200695376774076,0.0030053575048337375
0.3411371237458194,-2.039425232522108,0.5534224344270007,0.0004441663203713267,0.00043834815345386,-0.021983409017786497,0.0038063471001069074
0.34782608695652173,-2.021744388738861,0.5987758397699989,0.0004899049634948205,0.0005701855084259673,-0.02112178126617057,0.004946503871825193
0.35451505016722407,-2.0041367913942607,0.6439539726189835,0.0005680226317481005,0.0006893599348208924,-0.019465422132676154,0.006391050803551482
0.3612040133779264,-1.9868086464622268,0.6907739550697427,0.000667423028074548,0.0007967769073802713,-0.017103323496026692,0.00808807651717943
0.36789297658862874,-1.9699401162576256,0.7412093369367874,0.0007775565100934185,0.0008942248358963416,-0.014161437333506124,0.009976866212795912
0.3745819397993311,-1.953682475030758,0.7970914457838371,0.0008897122008842184,0.000983684757268362,-0.010781769960137485,0.011997437370896449
0.38127090301003347,-1.9386439578004138,0.864172795289313,0.0009917589916290954,0.001064173544580102,-0.007104129299148886,0.014082595504273217
0.3879598662207358,-1.925565396310556,0.9513891113602189,0.0010736205885297288,0.0011339931908622225,-0.0035746617355906763,0.01605714236160917
0.39464882943143814,-1.9135483047431356,1.048260150221351,0.0011451984251046841,0.001198028234829955,-0.00017542216538823932,0.017951261767074796
0.4013377926421405,-1.9058958391881509,1.1734557662301044,0.0011803885052537456,0.0012382192831244699,0.0022335168407528125,0.01932791835624417
0.4080267558528428,-1.8982433736331659,1.298651382238858,0.0012155785854028069,0.001278410331418985,0.004642455846893864,0.020704574945413546
0.41471571906354515,-1.8894183008548546,1.3935295261758982,0.0012468513389781461,0.0013224398601318194,0.007522997194162704,0.022423783271535706
0.4214046822742475,-1.8787987949693299,1.4420130423720494,0.0012721294335100986,0.0013723433901359685,0.01112522849653733,0.024667196263545816
0.4280936454849498,-1.8676083428368488,1.4851331287655847,0.0012795767855382399,0.001414764654138531,0.014825167887621045,0.027222072433588016
0.43478260869565216,-1.8557675180159834,1.5221436588247268,0.001266712894608013,0.0014486627664773383,0.018636407900557383,0.030131740574869954
0.4414715719063545,-1.8434523246807466,1.5588212750316763,0.0011977427603115929,0.001436427367752585,0.02070727296976386,0.03313292635917686
0.44816053511705684,-1.8309438010540808,1.5966400851250142,0.00042154771577908215,0.0017756281497117784,0.02259217656521192,0.038598745948131126
0.45484949832775917,-1.818202864218454,1.6459623450315375,-0.006634993242882154,0.00547502188418952,0.028405997101560745,0.06628751508173417
0.46153846153846156,-1.8056174572152919,1.7240796816649016,-0.008378073017415045,0.005739622207185783,0.033138910645183005,0.10062676895148101
0.4682274247491639,-1.7931927027791337,1.8319405274368663,-0.004632680481665331,0.0024562962581752773,0.03675531502575881,0.14183555664473824
0.47491638795986624,-1.779337556833015,1.9399096875106197,0.0003259044330848398,-0.0016225655393101183,-5.599338609307275,12.297240515023821
0.4816053511705686,-1.7649869412149215,2.043030091876079,0.0013689873880285111,-0.0028765286145690633,-7.006295768008512,14.910430427469034
0.4882943143812709,-1.7502829292383986,2.138638270000216,-0.003935837901882297,0.0004272353464446663,-0.33502514938839084,-0.5284469246830539
0.49498327759197325,-1.7365841278537548,2.219492966778428,-0.005044444569723921,0.0009296995455004326,-0.26124110305509135,-0.29091502047022394
0.5016722408026756,-1.7235100198071438,2.291239491977575,-0.006049578594701369,0.0013103561157146513,-0.2212406220772477,-0.16990894858731337
0.5083612040133779,-1.711041141766632,2.3541616254236293,-0.006954463834460473,0.0015730001708941408,-0.2139711248017779,-0.1617981581457442
0.5150501672240803,-1.6972666433423047,2.420549771295312,-0.008275619398843683,0.0021211454487022607,-0.2069310750980463,-0.1550277909680853
0.5217391304347826,-1.682994334880776,2.4890784888088566,-0.009757709945838624,0.002861665263932432,-0.1980912961547565,-0.1484198960632212
0.5284280936454849,-1.668275688464934,2.560062708856582,-0.01138682976510342,0.0038275685528435517,-0.1865008558657206,-0.14174568474672805
0.5351170568561873,-1.6530718669314972,2.6371665484278517,-0.013309934615515303,0.005216748590506316,-0.17357134323552686,-0.13511365701093941
0.5418060200668896,-1.6375758526142299,2.719685730509913,-0.015485680730330862,0.00698215014515041,-0.16000357989780017,-0.1282635411101096
0.5484949832775919,-1.621802169251129,2.8083383065242047,-0.018045141460492006,0.009249071407657362,-0.14581292537579993,-0.1211980881130024
0.5551839464882943,-1.6057758430850335,2.904262564458848,-0.02124815891544384,0.012236744143387721,-0.13100870156974853,-0.11399652579835372
0.5618729096989966,-1.5895399860016926,3.013708521160001,-0.026620765124128143,0.017115295845975678,-0.11535946688434526,-0.10745201396081225
0.568561872909699,-1.5729784566774652,3.1396469426738483,-0.0527299363946,0.03601105565474928,-0.09710329852516324,-0.11375029931064032
0.5752508361204013,-1.5562156784303547,3.2858892879251513,-0.03554947595510111,0.02820069290972445,-0.08121155336065375,-0.090200054528295
0.5819397993311036,-1.5392771538157684,3.4580595358120285,-0.0035723968302813058,0.010273252272181206,-0.07050589989115391,-0.0599199958882401
0.5886287625418061,-1.5221612148873098,3.6642118717473506,-0.0044216756866320185,0.011243031781128272,-0.06496479697197678,-0.05768326192074404
0.5953177257525084,-1.5048891136460258,3.917988018020153,-0.0053491072101061535,0.012232112188142038,-0.058981982615526146,-0.05500314085027207
0.6020066889632107,-1.4870449959082324,4.195017070288874,-0.006362579697621245,0.013211289685245155,-0.05225602245945557,-0.05159472361580112
0.6086956521739131,-1.4660911412182793,4.026541980770621,-0.007563999083385324,0.014253906870808235,-0.04388493535959621,-0.046926815227923496
0.6153846153846154,-1.4450748622092804,3.7533035109067256,-0.008721931657308116,0.015106827609791611,-0.035156942980305875,-0.04157208110997239
0.6220735785953178,-1.4247056324653453,3.45536354555607,-0.009727871732311889,0.01568014224227821,-0.026717624810971466,-0.03594535132138159
0.6287625418060201,-1.4050645513511213,3.1285569684873007,-0.010523767074572749,0.015955407591913467,-0.01899219077037506,-0.030394814664443208
0.6354515050167224,-1.3862679097186803,2.769979639259464,-0.011092953827486077,0.01595767575047514,-0.012134593713223259,-0.025390427428622186
0.6421404682274248,-1.3701438117857287,2.427877587695378,-0.011404646277017408,0.015742516633423746,-0.0034062237591552308,-0.01818306481882026
0.6488294314381271,-1.3552994923412038,2.070604569191549,-0.01150550817557551,0.015469032846442025,0.0048029696370616715,-0.01128257972985259
0.6555183946488294,-1.3411073154597304,1.6840464356385298,-0.011416885361107104,0.015191504293995881,0.011475517899929958,-0.0057549001810769385
0.6622073578595318,-1.3286241971929045,1.1726798508400313,-0.011087350542841063,0.014905900981858896,0.0156853525288625,-0.002133554207073555
0.6688963210702341,-1.3164534255145948,0.6753313904480639,-0.010680946021157725,0.014619267946203478,0.019252461466752305,0.0010444637019750697
0.6755852842809364,-1.3048341451886805,0.20895747050579128,-0.0101332675665217,0.0143308921627525,0.021652194189170415,0.003423682371403754
0.6822742474916388,-1.2937259119222733,-0.20330338037373138,-0.009474301121313124,0.014071462016528282,0.02317932460876507,0.005263588669264093
0.6889632107023411,-1.2829894199479202,-0.5762017853959209,-0.008734382559003155,0.013833087247459316,0.024071714447298935,0.006711193173976611
0.6956521739130435,-1.2735435152064962,-0.9554134877525782,-0.007941425281739828,0.013676910271450026,0.02416298808841215,0.007653521014266261
0.7023411371237458,-1.2647270313742263,-1.3377041926335371,-0.007122600960905541,0.013560821255648316,0.023863556419219403,0.008349424831924353
0.7090301003344481,-1.2550126580662018,-1.727754024709406,-0.00611149038357598,0.013502667105283717,0.023097753810981496,0.008957806271044557
0.7157190635451505,-1.2436323781043568,-2.132199817503021,-0.004743619912313489,0.013552002885947394,0.021466666029586957,0.00940380234236442
0.7224080267558528,-1.2297579140374841,-2.4897812062408327,-0.0037769290840601504,0.01357252095291874,0.02061081126077654,0.010324364070004642
0.7290969899665551,-1.2119950751187651,-2.7531190856531014,-0.003051556048602702,0.01333235219938817,0.02107406831802871,0.01171839662664872
0.7357859531772575,-1.1874651036216648,-2.797920732133298,-0.002004547944743886,0.012384139865056955,0.02332636136576974,0.013213836652369719
0.7424749163879598,-1.1605057044899194,-2.7292859612330167,-0.0007946528134851476,0.011400184969859515,0.024958369573647055,0.014118116844701385
0.7491638795986622,-1.1342643921986835,-2.64531026347026,0.00046394216340379485,0.01052037316168727,0.025872997788301485,0.014399806091363161
0.7558528428093646,-1.1088743776809609,-2.5487856659160495,0.0018107839998234788,0.009748527604727752,0.026250753641194315,0.014229947305293165
0.7625418060200669,-1.0843684167554246,-2.4421370644123086,0.003287399624316022,0.009059065676615286,0.0262394405089569,0.013777413508290303
0.7692307692307693,-1.0609008305905487,-2.324637639656697,0.0049464762598521485,0.008428460944914123,0.02583293847778159,0.013115127058961468
0.7759197324414716,-1.0386838097360722,-2.1948203632476306,0.006820249290837919,0.007823181607720074,0.024927164009732373,0.012289727838051833
0.782608695652174,-1.0180945830939212,-2.047178775295547,0.008864199640427577,0.0072114898936111865,0.02338186575184828,0.011353870375301243
0.7892976588628763,-1.000623255597038,-1.8572318642940362,0.010800603853181925,0.00662142375381545,0.021321921944005662,0.01045583027671316
0.7959866220735786,-0.983258467941998,-1.6766336057219486,0.012790058301690173,0.005964031880858,0.018560337346562716,0.009534353643901072
0.802675585284281,-0.9644032514827715,-1.5343445098425754,0.014836564729537729,0.005181722936092463,0.014819992192244513,0.008594374912840794
0.8093645484949833,-0.9438173595312676,-1.4333980455378657,0.016611097339301696,0.004296078245546437,0.010185603008542649,0.007782264483278422
0.8160535117056856,-0.9221339332420525,-1.358805741674656,0.017603083625679472,0.0034194953944102504,0.0053701371865033,0.007281860949526604
0.822742474916388,-0.8996058831261103,-1.3026057233649824,0.01751242893877345,0.0026546500971979686,0.001182337684296385,0.0071295049691203205
0.8294314381270903,-0.8763435883256546,-1.2603427972519885,0.01637587400948058,0.0020503798290735548,-0.0018481339419759999,0.007215068761421737
0.8361204013377926,-0.8523967803238861,-1.2286280566111956,0.014510123992122004,0.0015915761815255057,-0.00363264279663618,0.0073765156754347335
0.842809364548495,-0.8278492895351423,-1.2051240096708222,0.012347902244361088,0.0012291164594730173,-0.004384255736167051,0.007496577878944916
0.8494983277591973,-0.8026783862673538,-1.1882755734284784,0.010300157324042932,0.0008989493849673206,-0.004479538203031538,0.007548872263794208
0.8561872909698997,-0.7769649768084489,-1.175854976838528,0.008588581802083326,0.0005498389343149251,-0.004312665526275058,0.007590887513647134
0.862876254180602,-0.7507617267629751,-1.1670320658230342,0.007306270488027166,0.00014989404370974586,-0.004083191522936031,0.0076961030975297535
0.8695652173913043,-0.7240232855519162,-1.1614616460452816,0.006511636477982896,-0.00034088982188522414,-0.003917801759804048,0.0079575037447498
0.8762541806020067,-0.6967812679529103,-1.1583882813793331,0.006235916052559482,-0.0009726972167209056,-0.003897411456083502,0.008492654840637688
0.882943143812709,-0.6691168560589089,-1.1571165077671965,0.006483722357066317,-0.001802732639606197,-0.004057123928063773,0.009415171179577
0.8896321070234113,-0.6409838558947519,-1.1574910562551204,0.007563803564927533,-0.003047807182955074,-0.004511897752593923,0.011099084710901297
