# n,energy,berry,bcd_x,bcd_y,qmd_x,qmd_y
0.00000022222222222222222,-3.2,0,0,0,0,0
0.006666666666666667,-3.15196905933728,-0.000003962843395677651,0.0000000000000000000014610091405876437,0.000000000000000000014474409885734682,0.0000000000000000000010451304396496613,0.000000000000000000003735024620591943
0.013333333333333334,-3.104688029138946,-0.00002973592638906639,-0.000000000000000000015667851006777635,-0.00000000000000000007165763227065969,-0.000000000000000000021573123602953557,0.000000000000000000049362888959205736
0.02,-3.057999406352033,-0.00010007249270398136,-0.00000000000000000011060415280937879,0.00000000000000000032466778053788517,-0.00000000000000000004360216570520687,0.000000000000000000037545948487067756
0.02666666666666667,-3.0120615752458133,-0.00024066971415817752,-0.0000000000000000004286047795735498,0.000000000000000000004179462144034577,0.0000000000000000002455855064727359,0.00000000000000000007415662086455801
0.03333333333333333,-2.9667669406181814,-0.0004835805706323845,0.0000000000000000010323700034743408,-0.00000000000000000019371607111312855,-0.0000000000000000009080807088745648,-0.0000000000000000014510506407551302
0.04,-2.922122198354458,-0.0008569021008847859,0.0000000000000000001700087236833243,-0.0000000000000000014875405047863333,0.0000000000000000019742389072817366,0.0000000000000000005089488663422349
0.04666666666666667,-2.878108433592151,-0.0013951312373875493,-0.0000000000000000021907259663649908,0.0000000000000000028047802701034687,-0.000000000000000002308152360362784,0.0000000000000000009812967880590853
0.05333333333333334,-2.8348064773904103,-0.002135243397807613,0.0000000000000000004131888224728524,-0.000000000000000004312354602984788,-0.0000000000000000028729716095094506,-0.00000000000000000265422408235543
0.06,-2.7970352179753486,-0.002991559652156142,0.0000000000000000018021435292504013,0.000000000000000003054637453400575,-0.0000000000000000032304425294807834,-0.0000000000000000030742271541488837
0.06666666666666667,-2.7732902760413456,-0.003649026924232931,-0.000000000000000003612275254914747,-0.00000000000000001239838147484685,0.0000000000000000005477780247994282,-0.000000000000000001895063483181609
0.07333333333333333,-2.7509494340770546,-0.004360572325858461,-0.000000000000000005852938675167442,-0.00000000000000004313648316013811,-0.000000000000000002708322656485926,0.0000000000000000010347351547635443
0.08,-2.72873184190468,-0.005163068326455366,0.000000000000000011675232936751606,-0.0000000000000000064701041099199235,-0.000000000000000001773439140281877,0.0000000000000000020871644284287982
0.08666666666666667,-2.7067312317638206,-0.006064773877475102,0.0000000000000000005477872183676144,0.000000000000000021538453343490514,-0.0000000000000000044066784865818445,0.000000000000000007135931078279747
0.09333333333333334,-2.684886704985376,-0.007070573491820306,-0.000000000000000009867362670979646,0.000000000000000002906638951002528,-0.000000000000000005516098293876647,-0.000000000000000002730373171522581
0.1,-2.6631887544739365,-0.008188659990042818,0.00000000000000001699766195541357,-0.00000000000000001065113650984202,0.000000000000000017014399863676868,-0.0000000000000000009690620598641448
0.10666666666666667,-2.6416757856223536,-0.009427306138329027,-0.000000000000000015659312748265403,-0.000000000000000025343215034463918,0.000000000000000011317243745738182,-0.00000000000000002215949263932133
0.11333333333333333,-2.620279166544194,-0.01079206279375508,0.000000000000000009099520795020155,0.000000000000000020064272302147856,0.000000000000000003415275205781146,-0.000000000000000014956025583296697
0.12,-2.599104726961971,-0.012288633208199526,-0.000000000000000021859750070260915,-0.0000000000000000381561964276115,0.000000000000000013230192916810118,0.000000000000000008220772968123737
0.12666666666666668,-2.57799273422579,-0.013932479321834165,0.00000000000000009004319523604734,0.000000000000000038531808256020776,-0.00000000000000002118682734777627,-0.00000000000000001705689398327847
0.13333333333333333,-2.5571472837991887,-0.0157347128572226,0.000000000000000012545760186422932,0.000000000000000019419376788628924,-0.000000000000000044685306909803125,-0.0000000000000000008890160419916518
0.14,-2.536436967957204,-0.017698700260745544,-0.00000000000000004539938117031853,0.00000000000000005191882471328738,-0.0000000000000000042415056787404796,0.00000000000000001807592531102014
0.14666666666666667,-2.5158093564437385,-0.019847388570365262,0.000000000000000024496904237294807,-0.000000000000000029486541578182216,0.00000000000000002778464348362389,0.0000000000000000314760873984659
0.15333333333333332,-2.495449848511573,-0.022181532522940698,-0.00000000000000001930250203335486,0.00000000000000004885106249505028,0.0000000000000000461664031176775,0.000000000000000012374709199607721
0.16,-2.4751564357029974,-0.024716009865208895,0.00000000000000004827820196078247,0.000000000000000028836570868941484,0.000000000000000054689101358917116,-0.000000000000000009361049445298149
0.16666666666666666,-2.4550899059254228,-0.027472483969225754,0.00000000000000007644544744896374,-0.0000000000000002224581859527079,-0.00000000000000003522589821069579,-0.00000000000000004248042457804579
0.17333333333333334,-2.435125991722995,-0.030456174419523096,0.000000000000000038194434003674606,-0.000000000000000005655858826386815,0.000000000000000054909947621968963,-0.00000000000000002447932556855335
0.18,-2.4153406575766896,-0.0336870433552364,-0.0000000000000001417244806322013,0.00000000000000016111670625319954,0.0000000000000000699862452981511,0.000000000000000027822153257333576
0.18666666666666668,-2.3957544560122375,-0.03718799852826325,-0.00000000000000008475280661169042,0.00000000000000029167573920356545,0.00000000000000001643438515644191,0.000000000000000015543635533161967
0.19333333333333333,-2.3763169768531545,-0.040970816028895574,-0.00000000000000002370403338307811,0.00000000000000007574396541973253,0.000000000000000045192589333394234,0.00000000000000003098040315524867
0.2,-2.357015229196703,-0.045057675479778285,-0.00000000000000011088874722388523,-0.00000000000000019673980962225793,0.0000000000000000010973813033834365,-0.00000000000000001909247797576289
0.20666666666666667,-2.3378597701012533,-0.0494694779211806,-0.00000000000000016688908113479338,-0.00000000000000009278805836194726,-0.00000000000000007502304933833424,-0.00000000000000004591064067899177
0.21333333333333335,-2.3188661440570577,-0.05422434374778782,-0.0000000000000000003127074963579818,0.00000000000000015374495074108074,0.000000000000000035342094707220195,0.00000000000000010763559817516878
0.22,-2.3000408056704362,-0.05935500665392163,0.00000000000000035726915935913644,0.00000000000000041153007793047547,0.00000000000000009015989508251326,0.00000000000000010737209933947883
0.22666666666666666,-2.281318956875449,-0.06488092176784879,-0.00000000000000017924406882292411,0.00000000000000043913025051971335,-0.000000000000000042335028924392663,0.0000000000000001731097440135019
0.23333333333333334,-2.2628015421148704,-0.07085517226833228,-0.00000000000000025428224963786507,-0.000000000000000059687738023941,0.00000000000000018702370685446965,0.00000000000000008637275764086225
0.24,-2.2444575463364838,-0.07733300255404355,-0.00000000000000005358175137440305,0.0000000000000004605480018582392,0.00000000000000016219072294976248,0.0000000000000001881890837696797
0.24666666666666667,-2.2262822113408407,-0.08432516949047647,-0.00000000000000009915675163910388,0.0000000000000002239694808734918,-0.00000000000000026342170951034,0.00000000000000009012080128045987
0.25333333333333335,-2.208275148056161,-0.09186109186319671,-0.0000000000000003182354182377889,-0.00000000000000015086155099158693,-0.00000000000000018384279575065295,-0.00000000000000008120307953553729
0.26,-2.1904054158286015,-0.09998655287078892,-0.0000000000000004163790763611549,-0.0000000000000000011169654676353746,0.00000000000000011228032612694725,-0.00000000000000012896607783094748
0.26666666666666666,-2.1727008978086,-0.10872872943046867,-0.0000000000000002419549608851036,0.00000000000000038284251789635785,0.00000000000000019491528336325476,-0.00000000000000006130733951984367
0.2733333333333333,-2.155206270790679,-0.11809841631297079,-0.000000000000000024425682245262255,0.0000000000000004162163569153206,0.0000000000000000444248109020879,-0.00000000000000002154158641445803
0.28,-2.1378208104141807,-0.12822992095621735,-0.000000000000000724624751106593,0.0000000000000015346699959561372,0.00000000000000008390392096181792,0.00000000000000008921233340088822
0.2866666666666667,-2.120641623714843,-0.13933480799574577,0.0000000000000002136848009762691,-0.00000000000000020846672834574863,0.00000000000000010598068982140469,0.0000000000000002492306569022489
0.29333333333333333,-2.1036395653153668,-0.1512816551976417,-0.0000000000000004925837896811942,0.00000000000000007841284774550545,0.00000000000000013866863519408438,0.00000000000000030205745353491553
0.3,-2.0868064630912264,-0.16416734773329,-0.0010211427942073146,-0.00000000000000008115605528907792,-0.00000000000000015711325153040422,-0.00036137474385005417
0.30666666666666664,-2.070151447594695,-0.17803489623187296,-0.0021727388588008052,-0.0000000000000008960843046826854,-0.0000000000000004712996865176756,-0.0007710641212757372
0.31333333333333335,-2.0537041848432476,-0.19288395711262035,-0.0006153465477582959,0.00000000000000019234133780413116,0.00000000000000016979900193908953,-0.00022849951476655388
0.32,-2.0374072604948337,-0.20937792528754115,-0.0004948850885270468,-0.00000000000000032876934998634663,0.00000000000000015533492599264964,-0.0001899716141398005
0.32666666666666666,-2.0213222742781656,-0.22720863620554968,-0.0004419720949939718,-0.0000000000000007776778078976534,-0.00000000000000009096297020664005,-0.0001746924109934975
0.3333333333333333,-2.0054232698095933,-0.24640555330748332,-0.00041432943486340213,-0.000000000000001150662508272996,-0.0000000000000002793834527096476,-0.00016791944606106177
0.34,-1.9896961288114017,-0.26701769526707564,-0.0003985066935968349,-0.0000000000000013567866067648352,-0.00000000000000024737651805281343,-0.00016501363191230228
0.3466666666666667,-1.9742745386816052,-0.28996488482041766,-0.0003909240949379508,-0.00000000000000016022818939247137,-0.0000000000000002834358848589906,-0.0001647084011152647
0.35333333333333333,-1.9590271722405612,-0.31500608183939277,0.01564253673038018,0.000000000000000764681903569784,-0.00000000000000017787779400162003,-0.006613154614126345
0.36,-1.9439678839522756,-0.34201902102320253,0.027612075067790273,0.0000000000000008195255266756933,-0.000000000000000012876073653298155,-0.01181668740995879
0.36666666666666664,-1.9291333962717379,-0.3712016099343891,0.020884225325092876,-0.0000000000000005392472006098013,0.00000000000000016264713883088966,-0.010215982908086198
0.37333333333333335,-1.9146000209730767,-0.40417672530932547,0.01943929917144273,-0.000000000000000622714230600283,0.000000000000000026304702763605262,-0.00977995880884943
0.38,-1.9002697598798755,-0.4399994187033772,0.018299945070935464,-0.0000000000000002917758611181871,0.00000000000000010115549198593031,-0.00929125781858034
0.38666666666666666,-1.886137730475591,-0.478570050444889,0.017157511552188084,0.00000000000000031138151238255534,0.0000000000000003771458583438211,-0.008682235567473079
0.3933333333333333,-1.872514973148623,-0.5228716577884815,0.01577252762425351,-0.000000000000000537295352961887,0.00000000000000017638858854761483,-0.007904415379474459
0.4,-1.8591056313705818,-0.5713103389007916,0.014253839543132276,-0.0000000000000011562837258276469,0.0000000000000004832971982318406,-0.007070665205099479
0.4066666666666667,-1.845903867367378,-0.6237729281658406,0.012605104655466015,-0.0000000000000015518665107959306,0.0000000000000012839849826447922,-0.006182514954548877
0.41333333333333333,-1.8332042350156472,-0.6863174096594692,0.010778202951428647,-0.00000000000000032499710258310283,-0.00000000000000011465326997937228,-0.005254951671001268
0.42,-1.8208208313388519,-0.7536956343226195,0.008929069914192735,0.00000000000000033889052353446937,-0.0000000000000007070618714719328,-0.004337594398523319
0.4266666666666667,-1.8091458170369592,-0.8314236284023815,0.007058536018483982,-0.0000000000000007585939756328998,0.0000000000000011982613263868301,-0.0034541561003741173
0.43333333333333335,-1.7979958862357641,-0.9215469750459038,0.005255594550032354,-0.0000000000000006985131149646657,0.000000000000001351636425686656,-0.0026288231162925955
0.44,-1.7873802911968297,-1.0242840872178587,0.0035214365247730906,0.0000000000000005395300471140114,-0.0000000000000002778068675950142,-0.0018626192940348627
0.44666666666666666,-1.7783647824158513,-1.1653781645307526,0.0021484209585851456,0.000000000000001309704380427973,-0.0000000000000004932078080130781,-0.0012711531038693523
0.4533333333333333,-1.7707578108641422,-1.34023742989783,0.0010933148776780992,0.0000000000000016680192527578845,0.0000000000000005361562058759495,-0.0008335064087044872
0.46,-1.7631508393124329,-1.5150966952649085,0.000038208796771044187,0.0000000000000020263341250877986,0.0000000000000015655202197649855,-0.0003958597135396184
0.4666666666666667,-1.7539269117237055,-1.651937024724713,-0.0002815409064323856,-0.00000000000000027571112226435787,0.0000000000000016045346817380738,-0.0002678063958550207
0.47333333333333333,-1.7442766090384434,-1.778752141936012,-0.00040738450498440575,-0.0000000000000032792666623380425,0.0000000000000013824038953963543,-0.00022138974805359038
0.48,-1.732760345998623,-1.8715337780339159,-0.0004581450832069634,-0.000000000000001788033479732924,-0.00000000000000002778085808410858,-0.000205761737069952
0.4866666666666667,-1.7201533639367823,-1.9444216553254012,-0.0004650170127216486,0.0000000000000023305607546804904,-0.000000000000002132424664769276,-0.00020813076003035313
0.49333333333333335,-1.706769192431605,-2.00407277541213,-0.0004727121098003257,-0.000000000000001591573648912904,0.00000000000000011271114730148394,-0.00021062116222033168
0.5,-1.6931633407082816,-2.059651142405354,-0.0004806677272996691,-0.0000000000000019492025960958896,-0.00000000000000008612303161814004,-0.00021311633829418274
0.5066666666666667,-1.67927836299584,-2.110068502606863,-0.0004889542194330282,0.0000000000000028288575666273645,-0.000000000000003769520328564293,-0.00021561422629549632
0.5133333333333333,-1.6650632548541682,-2.154236306058851,-0.0004977468170776919,0.000000000000003884484036397524,-0.0000000000000009453624304451546,-0.00021810289065172316
0.52,-1.6506386560772977,-2.1952763756353586,-0.0005068176905264549,0.0000000000000021243295470768515,0.0000000000000006028665731903106,-0.00022057086911049563
0.5266666666666666,-1.6359974095582894,-2.233051812895525,-0.0005161769068577751,-0.000000000000002410513010907776,-0.000000000000000047337998679218425,-0.00022301153270058282
0.5333333333333333,-1.6213102843381546,-2.2652961459780254,-0.0005258164084236055,-0.0000000000000013922116010199797,-0.0000000000000011520446463427259,-0.00022534431875307346
0.54,-1.6065262556767825,-2.2945429893805827,-0.0005357240384598829,0.0000000000000008510186795763931,-0.0000000000000005326322825592302,-0.00022763524034949154
0.5466666666666666,-1.5916847404134231,-2.3207496434713883,-0.0005458453882222574,0.0000000000000030320152208031302,0.0000000000000006562439248382382,-0.00022986953664798221
0.5533333333333333,-1.5768565836900008,-2.3426020017884635,-0.000556136257573121,0.0000000000000020637985428348856,-0.00000000000000010521935499118811,-0.000231989507651444
0.56,-1.5619008188985968,-2.3603517362699096,-0.0005667692081360535,-0.00000000000000228892253590031,0.000000000000000755956063664246,-0.00023403919694843826
0.5666666666666667,-1.54697149135373,-2.3745388441415085,-0.0005775530824987454,-0.00000000000000423808943359834,0.0000000000000018635194800813296,-0.00023600882491769574
0.5733333333333334,-1.5321248933736238,-2.385026650687159,-0.0005884342744736364,-0.000000000000001598186892473155,0.000000000000002726937484643999,-0.0002378875964042551
0.58,-1.51734614281538,-2.3891071496306293,-0.0005995007035557593,-0.0000000000000008297395796106631,0.00000000000000007271837155295081,-0.00023961249715517374
0.5866666666666667,-1.502704862897343,-2.3888416333041453,-0.0006106343968091863,-0.0000000000000032028539711160686,-0.0000000000000007178735863603652,-0.00024124536943333327
0.5933333333333334,-1.4881879767281092,-2.3841911042963497,-0.000621830368809912,-0.0000000000000057362185963211616,-0.00000000000000033672925620671504,-0.00024278964885061628
0.6,-1.4738325810956487,-2.372142385280868,-0.0006331125193081073,0.0000000000000016345942173961623,-0.00000000000000037437153570265436,-0.00024419886546337414
0.6066666666666667,-1.4596828829779285,-2.3523936298080748,-0.0006444086100073397,0.0000000000000013435617533388366,0.0000000000000007283520531694604,-0.00024548688207246395
0.6133333333333333,-1.4457524387855871,-2.326418945261985,-0.000655655218763739,-0.0000000000000008955040520932619,0.0000000000000016387570850483431,-0.0002466818731557371
0.62,-1.4322767403127628,-2.290032959500804,-0.0006667179716473352,0.0000000000000006759933825313493,0.00000000000000037294929656715167,-0.00024772957674831385
0.6266666666666667,-1.4192529207436675,-2.241254985943288,-0.0006775630369691083,0.0000000000000019774527895903383,0.0000000000000005587404672107852,-0.0002486492303194175
0.6333333333333333,-1.4064981572672322,-2.1851698631444116,-0.0006882688019390707,0.0000000000000030669185470993253,0.0000000000000012766418739536561,-0.00024949833330537496
0.64,-1.3947381834772736,-2.1029874107312767,-0.0006983345024155602,0.000000000000002711557477957116,-0.0000000000000003261487784292119,-0.0002501600677734461
0.6466666666666666,-1.3836839037161726,-2.0048211487928578,-0.0007078422526212115,0.0000000000000018064524254695757,-0.0000000000000011599227869224475,-0.0002507527534482025
0.6533333333333333,-1.3744078934209607,-1.8663774872094103,-0.000715944030989858,-0.0000000000000004839455438674741,-0.00000000000000005586147207676667,-0.00025117144394121296
0.66,-1.3651511782472605,-1.7270651197647815,-0.0007240345467755706,-0.0000000000000026734399227213914,0.000000000000000997943039351535,-0.00025158558935599036
0.6666666666666666,-1.3564009205817957,-1.5649509987486,-0.0007318294427754451,-0.0000000000000022144212576406866,0.0000000000000007326091657127886,-0.00025188043575545825
0.6733333333333333,-1.3476506629163307,-1.4028368777324158,-0.0007396243387753198,-0.0000000000000017554025925599745,0.0000000000000004672752920740377,-0.0002521752821549262
0.68,-1.3354683508409757,-1.3053452073174252,-0.0007506365283189829,-0.00000000000000010088683310474306,0.0000000000000021783773301888357,-0.0002524790239934522
0.6866666666666666,-1.321261925223271,-1.244618433880646,-0.0007635839953798344,0.0000000000000012850478063358506,0.00000000000000393267094169833,-0.0002527621390176336
0.6933333333333334,-1.3059883480106846,-1.1971553679805467,-0.0007777235685055928,-0.0000000000000018928902341526678,0.0000000000000006116216301273734,-0.0002529168645676622
0.7,-1.2898533648421369,-1.1567226197283802,-0.0007928823823408713,-0.0000000000000004796503721619531,-0.0000000000000009730889493956982,-0.00025291923901167986
0.7066666666666667,-1.273035111677093,-1.121312550094834,-0.0008088991127112039,0.000000000000001590099761097726,0.0000000000000005279167250491463,-0.0002527711066180237
0.7133333333333334,-1.25558734907476,-1.0903782910685007,-0.0008257577026523191,0.000000000000002213579125276019,0.000000000000002787502829959976,-0.0002524466680692193
0.72,-1.237608708585495,-1.0633352051535707,-0.0008433865923823651,0.0000000000000003470368672557651,0.0000000000000016695632213258656,-0.00025192183087573784
0.7266666666666667,-1.2191409503477284,-1.0396938890225775,-0.0008617618493109758,-0.000000000000003149564693842623,0.0000000000000015263798106305693,-0.0002511725327684447
