# n,energy,berry,bcd_x,bcd_y,qmd_x,qmd_y
0.0000015,-3.0037432810524813,-0.0000000000000010226286991802154,0,0,0,0
0.006688963210702341,-2.9796188274739053,-0.00000006180603949453986,-0.00000000000000000000034021404421199585,0.00000000000000000000006744126107921879,-0.000000000000000000000479712327960752,-0.0000000000000000000024402966224994057
0.013377926421404682,-2.9556284197110596,-0.00000040197745688682723,0.000000000000000000010579395047722717,0.000000000000000000009991010928720689,-0.000000000000000000003967880656962675,-0.000000000000000000016661009245055075
0.020066889632107024,-2.9318564252134367,-0.0000013725658587791107,0.00000000000000000008421579679374974,-0.00000000000000000003064076129553733,0.000000000000000000022257051725075182,0.000000000000000000027062847916126417
0.026755852842809364,-2.9082279133009226,-0.00000325554065757809,-0.00000000000000000012453497902518438,0.000000000000000000016605665351927312,-0.00000000000000000005738575464984943,0.000000000000000000039409910417876764
0.033444816053511704,-2.884818578137725,-0.0000064479421758038655,-0.00000000000000000031856965147985437,-0.00000000000000000023038055106952315,-0.00000000000000000011792570086179772,-0.00000000000000000008000788676604473
0.04013377926421405,-2.861512555726696,-0.000011855592917711758,-0.0000000000000000003673482756788134,0.0000000000000000002206399225206692,-0.000000000000000000019985105160836807,0.00000000000000000006395619660020114
0.046822742474916385,-2.838377185483284,-0.00001950855487528313,-0.0000000000000000006060432561787226,-0.0000000000000000004097570351428261,0.00000000000000000021404843789476982,-0.0000000000000000000058057157741108285
0.05351170568561873,-2.815484342115054,-0.000029688117960854864,-0.00000000000000000010189190325315677,-0.00000000000000000035081653210513915,0.0000000000000000006320421928106138,0.0000000000000000004132057119682403
0.06020066889632107,-2.792691139817938,-0.00004357529920580522,0.0000000000000000010557773262815824,0.0000000000000000009168590959889897,-0.00000000000000000034277405739875283,-0.0000000000000000002275618629416822
0.06688963210702341,-2.7701433305696948,-0.00006160411223079989,-0.0000000000000000030887145022958913,0.0000000000000000041240441196335896,-0.0000000000000000013188641488605594,0.000000000000000000012772014274883583
0.07357859531772576,-2.7476693111826984,-0.0000855416733559238,-0.0000000000000000017178496937414743,-0.000000000000000003679219309977179,0.0000000000000000009530281117292422,-0.00000000000000000013983727742614657
0.0802675585284281,-2.7253808541950733,-0.00011510226559660903,0.0000000000000000023292778328130286,0.0000000000000000020089726544973735,-0.0000000000000000015321980026667536,-0.00000000000000000235309033948156
0.08695652173913043,-2.7033371131480117,-0.00015260904508742297,-0.0000000000000000013025534504448167,0.0000000000000000025360594770428566,0.0000000000000000005618573663790535,-0.0000000000000000031622009405495227
0.09364548494983277,-2.6814084083799252,-0.000195664475524125,-0.0000000000000000027621083795451343,0.0000000000000000054206526132974436,-0.0000000000000000016976214921009493,-0.0000000000000000001113999678059978
0.10033444816053512,-2.659553440667213,-0.000250049043354886,-0.00000000000000000322040408334945,-0.0000000000000000018747661749647927,0.000000000000000004692396661624843,-0.0000000000000000007055629832154436
0.10702341137123746,-2.637975737116861,-0.0003187036987825326,-0.0000000000000000014444229636375753,0.00000000000000001126763597998284,-0.00000000000000000038748171747992843,0.0000000000000000049123440116691114
0.11371237458193979,-2.6165951330572543,-0.00039237082808305315,0.000000000000000003986388439236946,0.00000000000000001190391930732756,0.000000000000000005958126981791309,-0.0000000000000000006084442531914117
0.12040133779264214,-2.5951705446347573,-0.0004836344785564469,0.0000000000000000007752661387572995,0.000000000000000003626103990770327,0.0000000000000000017866253318576477,-0.0000000000000000032781723500282
0.12709030100334448,-2.574120676776735,-0.0005876962789923437,-0.000000000000000004877775305806152,-0.000000000000000016899611687917547,-0.000000000000000004746192884565923,-0.000000000000000007306197613623612
0.13377926421404682,-2.553109208590774,-0.0007181898866625881,0.0000000000000000019904522868904044,0.00000000000000003382923407394659,0.000000000000000012669869931745835,0.000000000000000007112349251345884
0.14046822742474915,-2.5322788918568433,-0.0008633657426264314,0.00000000000000000731831917907656,-0.0000000000000000021358289459771146,-0.000000000000000004454185401889747,-0.000000000000000006937872529700285
0.14715719063545152,-2.511648910768056,-0.001029770914094117,0.00000000000000003318298295124575,-0.00000000000000004547954897184639,0.000000000000000008556267728585144,-0.000000000000000016924437288705288
0.15384615384615385,-2.4912512107444984,-0.0012284803564544386,-0.000000000000000002765658535533098,-0.000000000000000033989883853826434,0.00000000000000001979423834505148,0.000000000000000005303712928406949
0.1605351170568562,-2.470884106809222,-0.0014451659798363154,-0.000000000000000004618096540223307,-0.00000000000000007313521144384971,0.000000000000000012597973148433682,0.000000000000000008766993857670435
0.16722408026755853,-2.450653789763815,-0.0017085364805187327,-0.000000000000000046356189054491224,-0.0000000000000000406849014050826,-0.000000000000000009761326151593095,-0.0000000000000000035133064600601576
0.17391304347826086,-2.4305746718951724,-0.001987927477056399,0.000000000000000024407490703963138,-0.000000000000000008165449875618374,-0.00000000000000002233999931316122,0.000000000000000024458859212058897
0.1806020066889632,-2.410731371303778,-0.0023127858105475674,-0.00000000000000001990375872005003,0.00000000000000004913324188064931,-0.00000000000000002926816367749211,-0.0000000000000000015805008086765906
0.18729096989966554,-2.391065652898645,-0.002690030204722642,-0.000000000000000024401569161484862,0.00000000000000006606115184339345,-0.000000000000000005612833679839762,-0.00000000000000003441090267476097
0.1939799331103679,-2.371467046525838,-0.0031171235579562705,-0.000000000000000029127694884072305,0.00000000000000004562446927620771,0.00000000000000003189611577486668,-0.00000000000000001842056859504023
0.20066889632107024,-2.3520696408110755,-0.0035963152300179484,-0.00000000000000003716716068090707,-0.00000000000000003555304058421756,0.0000000000000000572931307772922,-0.000000000000000016683175683086018
0.20735785953177258,-2.3328533094521724,-0.004128722046590968,-0.00000000000000009866133795721832,0.00000000000000000391655430993778,0.000000000000000050689011442184645,-0.00000000000000001685494589063751
0.2140468227424749,-2.313721689393512,-0.004725037753859023,-0.00000000000000008701314356175238,-0.00000000000000009433276557577214,0.00000000000000004883612968729016,0.00000000000000001719221012266681
0.22073578595317725,-2.2948262699210185,-0.005402623056453317,-0.000000000000000025143428161701118,-0.0000000000000001552490936284639,-0.00000000000000003631755388952309,0.000000000000000029630024752311557
0.22742474916387959,-2.2760109903672703,-0.006172040186380436,-0.000649495501790128,-0.00000000000000007362938484042454,0.00000000000000003087134464250349,-0.0002707091730547831
0.23411371237458195,-2.2574202649731934,-0.007014280868344138,-0.003078305279883118,0.00000000000000005219569677100123,0.00000000000000003654292457467242,-0.0012851087968494648
0.2408026755852843,-2.2389371781700063,-0.007962793601167235,-0.0008751214987553456,0.000000000000000035856317751187224,-0.000000000000000009546541785857847,-0.00038019930058552594
0.24749163879598662,-2.220661701304477,-0.008994301878301384,-0.0007028517913441737,-0.00000000000000021645390968126138,-0.000000000000000005082505451254013,-0.000314602821469838
0.25418060200668896,-2.2025388849595595,-0.010218787416495864,-0.0006380260616222139,0.00000000000000030318585113531053,-0.00000000000000006275610514575773,-0.00029232818255849963
0.2608695652173913,-2.1844689395674823,-0.0114861123074826,-0.0006060928048957946,-0.00000000000000007250166246858094,-0.000000000000000025307718929274,-0.0002829859316604256
0.26755852842809363,-2.16655148835532,-0.013029155001868692,-0.0005900138123398385,-0.0000000000000000010479252734711966,0.00000000000000010624402451839385,-0.0002796417460692434
0.27424749163879597,-2.1490212879767934,-0.014702390470776221,-0.0005832941135075863,-0.00000000000000008165727096956865,0.0000000000000000044607400755950786,-0.0002796704319442514
0.2809364548494983,-2.1315994051902796,-0.016517854922389278,-0.0005820590968494316,-0.00000000000000009719577701409114,-0.00000000000000007974362594611268,-0.00028155092041900695
0.28762541806020064,-2.114256855151693,-0.01854923181687155,-0.0005845854790042502,-0.00000000000000034253717688783053,-0.000000000000000024999095909856208,-0.00028460410879071465
0.29431438127090304,-2.097086406030987,-0.020839130500512563,-0.0005897156170248213,-0.00000000000000020724372371760258,0.000000000000000016952870186848162,-0.00028835591450783167
0.3010033444816054,-2.0800905041708044,-0.02340622709948646,-0.0005967205197523063,0.0000000000000007119435639474641,-0.00000000000000003324753101151644,-0.00029252287562588113
0.3076923076923077,-2.0631840568377116,-0.026281019786385345,-0.0006056608454497543,0.0000000000000006286081292236877,0.00000000000000009536100035672241,-0.00029718676644606515
0.31438127090301005,-2.046531125406265,-0.0293778535884374,-0.0006158593217436007,0.00000000000000023188297317813086,0.00000000000000008801423820773062,-0.00030200828151260184
0.3210702341137124,-2.0299891244870247,-0.03294655948261612,-0.0006270644988650342,-0.0000000000000002918651532533333,0.000000000000000015891315161979554,-0.0003069034188359741
0.3277591973244147,-2.0136884740818326,-0.03689193997523997,-0.000639247392058023,-0.00000000000000018028073844574582,0.00000000000000020723431338465887,-0.00031192124230365083
0.33444816053511706,-1.9975916936306457,-0.04126917911645598,-0.0006517821878880316,-0.00000000000000006144929450721299,0.00000000000000009284260949674729,-0.0003167783577332843
0.3411371237458194,-1.9816586798866853,-0.04611827286896651,-0.0006646528897503617,-0.0000000000000001634427453211328,-0.00000000000000008421504648210294,-0.00032148175760031905
0.34782608695652173,-1.9658676311771792,-0.05145962707292748,-0.0006783565751484441,-0.00000000000000022404281572114427,0.0000000000000004969634685550363,-0.00032628529254034297
0.35451505016722407,-1.950190060084693,-0.05765614422024751,-0.0006925196990304875,-0.0000000000000002865624304425069,-0.0000000000000002663339255569942,-0.00033093280886839965
0.3612040133779264,-1.9348265766232364,-0.06455499382619567,-0.0007068325590019566,0.00000000000000026373385799483553,0.0000000000000001039250629975391,-0.0003353769874842543
0.36789297658862874,-1.9197278140800624,-0.07221693336319325,-0.0007212705315513517,0.0000000000000006640297817797862,0.00000000000000033211066797745606,-0.00033964046808291774
0.3745819397993311,-1.9048332930975052,-0.08069715323731624,-0.0007358581961168574,0.0000000000000008077874001374741,0.00000000000000022646043755126063,-0.0003437422770815685
0.38127090301003347,-1.890060758697509,-0.09022146864891965,-0.0007507063197871309,0.000000000000001042447117659168,0.00000000000000034780087397466876,-0.000347686095643211
0.3879598662207358,-1.8756367960041962,-0.1011608396073332,-0.0007656007757167325,-0.000000000000000045225611669983973,-0.0000000000000002492306803911202,-0.0003513925091734622
0.39464882943143814,-1.8613840778901103,-0.11336483191690687,-0.0007805941341514892,-0.0000000000000005705919814981214,-0.00000000000000020821270731656168,-0.00035494648942693314
0.4013377926421405,-1.8472795942033013,-0.12690474828017995,-0.0007956924758845003,-0.0000000000000004974979735365955,0.00000000000000030866927489294825,-0.0003583570463907838
0.4080267558528428,-1.8333844730726039,-0.14262589621143215,-0.000810916797840391,-0.0000000000000008749057672970553,-0.00000000000000036483706807782894,-0.00036156420481019656
0.41471571906354515,-1.8199536960515188,-0.16080476921678483,-0.000826040141254412,-0.0000000000000014161413660897239,-0.000000000000000378952668426667,-0.00036459267229289335
0.4214046822742475,-1.8067928055651519,-0.1809396313397845,-0.0008410554720729764,-0.0000000000000020328574166842663,-0.0000000000000003109326157658153,-0.00036746548113818645
0.4280936454849498,-1.793920499811976,-0.20414431013862486,-0.0008558638351258167,-0.0000000000000026936741746578603,-0.0000000000000007135348065554045,-0.00037007577954912695
0.43478260869565216,-1.7814168655338298,-0.23171755439274758,-0.0008705936690194948,-0.0000000000000017201538932018522,-0.0000000000000005082337829831389,-0.00037252157170084997
0.4414715719063545,-1.7691320838046953,-0.2622637182740634,-0.0008852196393809243,-0.000000000000000507503097550443,-0.00000000000000007431001756376414,-0.0003748549318261368
0.44816053511705684,-1.7573224531779827,-0.3005450428813684,-0.000899426994870572,-0.0000000000000012418170310629598,0.00000000000000040986443022127096,-0.0003768943416237978
0.45484949832775917,-1.7460745062932652,-0.3456236726566754,0.047537950637469586,-0.0000000000000008703840154193904,0.0000000000000003360178340923423,-0.02716329214109393
0.46153846153846156,-1.7353977216730792,-0.39761431344850096,0.14524454319047594,0.0000000000000006254556444965203,-0.000000000000000305266519743733,-0.081186039594438
0.4682274247491639,-1.7260692722518016,-0.47189415147642433,0.13133539613705544,0.0000000000000009500499076324929,-0.00000000000000019482565783807585,-0.07318582857139808
0.47491638795986624,-1.7174261105342128,-0.5575024134773707,0.06069785250072267,0.0000000000000006793618781569602,0.0000000000000002976775037964706,-0.03366261731469562
0.4816053511705686,-1.7093534650008129,-0.6571460884546525,0.015416706950503777,0.0000000000000003789024826441759,0.0000000000000005116456437370413,-0.008508348938043794
0.4882943143812709,-1.7021401925963617,-0.777931419181286,0.008330108314151926,0.00000000000000003359823838994398,0.0000000000000003060542343632488,-0.004998135094331368
0.49498327759197325,-1.6949269201919106,-0.8987167499079196,0.0012435096778000733,-0.00000000000000031170600586428806,0.00000000000000010046282498945633,-0.001487921250618942
0.5016722408026756,-1.6853984344839368,-0.9761707947659453,-0.000990011421858638,-0.00000000000000004596303012588219,-0.0000000000000003914216138222803,-0.00038708883313123626
0.5083612040133779,-1.6748110332826776,-1.0338062899117588,-0.001003867065250519,0.0000000000000004992562977026505,-0.0000000000000010142486850170133,-0.00038824184289595453
0.5150501672240803,-1.6634691864349473,-1.0761777168925444,-0.001018880925288404,0.0000000000000002927876516566822,0.00000000000000004715993054924024,-0.00038928366505429406
0.5217391304347826,-1.651896178096706,-1.1139370850486803,-0.0010342781715380377,0.00000000000000013561733939755687,0.000000000000000840377049399173,-0.00039028497893195396
0.5284280936454849,-1.6397748611497998,-1.1410202337173363,-0.001050700641327756,0.0000000000000012315298972943127,-0.000000000000002189120828437243,-0.00039116403887794155
0.5351170568561873,-1.6274576000016536,-1.1626962790857835,-0.0010675322663835879,0.000000000000001722051366315649,-0.000000000000002590537142876482,-0.00039193410851737356
0.5418060200668896,-1.6149595534962427,-1.179383531238048,-0.0010847413932000896,0.0000000000000016540166566151188,-0.0000000000000005671883387089052,-0.0003926036196744194
0.5484949832775919,-1.6023979586020642,-1.1870978538254968,-0.0011022994565497897,-0.00000000000000023362804906230014,-0.000000000000000999954377809138,-0.00039304496767723787
0.5551839464882943,-1.5897314566524916,-1.1900969823828143,-0.0011201219870378188,-0.0000000000000018270267805140938,-0.00000000000000025818586891045067,-0.00039337722933885247
0.5618729096989966,-1.5769102164672464,-1.186585038888458,-0.0011383209120030646,-0.0000000000000028414380939687744,0.0000000000000024458809274697413,-0.0003935603498300904
0.568561872909699,-1.5640758382828737,-1.174884913169126,-0.0011567702919571615,-0.0000000000000015350999328875355,0.0000000000000022893809347070084,-0.0003935190451317917
0.5752508361204013,-1.5512648659575001,-1.1578395331096296,-0.0011753198105291327,-0.0000000000000007164323585582468,0.0000000000000011147121085882866,-0.00039335706228184146
0.5819397993311036,-1.5385017592292891,-1.1329982410603698,-0.0011939881812337845,-0.0000000000000014686820550899683,-0.0000000000000011803955102788032,-0.00039303015999788955
0.5886287625418061,-1.525834894722346,-1.0971572534451823,-0.0012127237807807924,-0.0000000000000002641414077633842,-0.0000000000000007692305063258671,-0.00039249256227364055
0.5953177257525084,-1.5133093524916732,-1.0544870685052148,-0.0012313620636621432,0.0000000000000010558331950389948,-0.000000000000000181826852405316,-0.0003918438409697654
0.6020066889632107,-1.5011134949513827,-0.9999218454540912,-0.0012496884426733835,0.0000000000000014509955339601925,-0.0000000000000008275638738341283,-0.00039102172617875414
0.6086956521739131,-1.489151760005651,-0.9311310791250872,-0.0012678136368020308,0.0000000000000008295775807803358,-0.0000000000000002403595963826317,-0.0003900479848367678
0.6153846153846154,-1.477315357178767,-0.854782968763884,-0.0012858294224858085,-0.0000000000000003226016667006328,0.0000000000000009683412470863717,-0.0003889948825037192
0.6220735785953178,-1.4660920310436185,-0.7479149312359159,-0.0013031199720941104,-0.0000000000000025760812555381424,0.0000000000000009317927046779375,-0.0003877547516871815
0.6287625418060201,-1.4553380832203724,-0.6283532829467826,-0.001319732626192812,-0.0000000000000034368984526515183,0.000000000000000793463089561043,-0.000386511372852449
0.6354515050167224,-1.445886029418295,-0.4735839236536291,-0.0013344650312715927,-0.00000000000000043494910236130747,0.0000000000000003728277805779131,-0.00038525898513221585
0.6421404682274248,-1.4367193314301019,-0.3068209885651733,-0.0013487796910665944,0.000000000000002037487889236201,0.000000000000000013642866938279066,-0.0003840097357460815
0.6488294314381271,-1.4287327525631077,-0.09045735344222255,-0.001361366721098363,0.000000000000002320070569131107,-0.00000000000000009140744343918832,-0.00038277346527223344
0.6555183946488294,-1.4207461736961133,0.12590628168072826,-0.0013739537511301316,0.0000000000000026026532490260128,-0.0000000000000001964577538166557,-0.00038153719479838537
0.6622073578595318,-1.4100014443299924,0.28238263627850113,-0.0013910324942307563,0.0000000000000011935790079626949,-0.0000000000000014225769710891076,-0.0003796774933634383
0.6688963210702341,-1.3980512207238136,0.41192691667292053,-0.0014100823101106344,-0.0000000000000005182100305515066,-0.000000000000002786960814876328,-0.000377533116387409
0.6755852842809364,-1.3826964150400587,0.457602276235043,-0.0014347802714583028,0.0000000000000014159621119869133,-0.0000000000000009164245097084267,-0.0003744590500276334
0.6822742474916388,-1.3667364302013976,0.4968611162989159,-0.0014606434260481093,-0.00000000000000041912225448514676,-0.00000000000000012487260293595493,-0.0003709675977796109
0.6889632107023411,-1.3502731678051327,0.5315219120006406,-0.0014875063687940528,0.0000000000000012636565478442052,0.0000000000000013479735230738526,-0.00036706480593626896
0.6956521739130435,-1.3333605136004711,0.5622680051793761,-0.0015152908294896626,0.0000000000000011325424860598678,0.0000000000000013142781720901182,-0.00036272782031368707
0.7023411371237458,-1.3159527136502185,0.5899700957504505,-0.001544077736007177,-0.000000000000003061828347877317,-0.0000000000000011880451549458967,-0.00035790915655403
0.7090301003344481,-1.2978665795066897,0.6159165414012815,-0.0015741758674056093,0.00000000000000008903597288248222,-0.0000000000000009907264559982858,-0.0003525130076086439
