# n,energy,berry,bcd_x,bcd_y,qmd_x,qmd_y
0.0000015,-3.249995614429462,-0.000000000000000006330145406262562,0,0,0,0
0.006688963210702341,-3.201696311755009,-0.0000013209305228201777,-0.000000000000000000005129234394327895,-0.0000000000000000000032921999021650165,0.000000000000000000001653471683190354,0.000000000000000000003640569782775169
0.013377926421404682,-3.153842095342613,-0.000009896284292645145,-0.00000000000000000000649044739642342,0.00000000000000000003723005115131004,0.000000000000000000004574821639574737,-0.000000000000000000007193085965352411
0.020066889632107024,-3.1063152683838924,-0.00003312507321070009,-0.00000000000000000005630644936698794,-0.00000000000000000009674316815485482,0.00000000000000000008737440182319668,-0.0000000000000000000010733374983465168
0.026755852842809364,-3.0592204268144068,-0.0000790569279605733,0.000000000000000000026744757668553018,0.000000000000000000044239132002120635,-0.00000000000000000031876825415855117,0.0000000000000000001214116389619656
0.033444816053511704,-3.0127315514311226,-0.00015785782966573237,0.00000000000000000009235376672248564,-0.0000000000000000008015569662886207,-0.00000000000000000014944050678413418,0.0000000000000000000607515853837107
0.04013377926421405,-2.9664059134231517,-0.00027783169366152625,0.00000000000000000035810968153709593,0.0000000000000000006216868907628917,-0.0000000000000000009525466735702042,0.00000000000000000026252397647628344
0.046822742474916385,-2.920695566696365,-0.0004490425472461261,-0.00000000000000000017876958753965008,0.00000000000000000017367630884134343,0.0000000000000000006774339720775437,0.0000000000000000009129124803846339
0.05351170568561873,-2.875329450247765,-0.0006821970879277489,-0.000000000000000001798947755526923,0.0000000000000000025786006667944896,-0.0000000000000000009653729042427728,0.000000000000000000275682972999578
0.06020066889632107,-2.8304582953949593,-0.0009890452315762903,-0.0000000000000000017360786459263865,0.0000000000000000033196164742381587,0.00000000000000000015333198416365234,-0.0000000000000000020623461289472753
0.06688963210702341,-2.78593441023574,-0.0013821957610511465,0.000000000000000003385217481004464,0.000000000000000001056157583238084,0.0000000000000000068946992372415045,-0.0000000000000000006783196992638085
0.07357859531772576,-2.747291125764661,-0.0018101485319030023,0.0000000000000000008127484787840566,-0.0000000000000000026815470158079245,0.000000000000000003944188836320838,-0.0000000000000000018711678721893685
0.0802675585284281,-2.7226980789003106,-0.002126411667737218,-0.00000000000000000035160133263647084,-0.0000000000000000004582879543227185,0.0000000000000000006532286971529961,-0.0000000000000000030269789415600347
0.08695652173913043,-2.699795187424653,-0.002455254878982109,0.000000000000000002428856155272866,0.000000000000000007805222204238015,-0.0000000000000000024367923991759857,-0.000000000000000011969682679180135
0.09364548494983277,-2.6770279969349766,-0.002822047677598035,0.000000000000000005108818204205549,0.000000000000000004795945289148158,0.0000000000000000017244535260344686,-0.0000000000000000015253506400302662
0.10033444816053512,-2.6543816012504613,-0.003224234784839835,-0.000000000000000005331586134803059,-0.000000000000000005996810736666993,0.000000000000000009943254030089233,0.0000000000000000005350587218388527
0.10702341137123746,-2.6317930800816964,-0.0036639872440183793,0.000000000000000010245060092539976,-0.000000000000000024501148230347878,0.00000000000000000032728885140482984,0.000000000000000007494356832899172
0.11371237458193979,-2.609292772741905,-0.004143206231938841,0.000000000000000016891671596833947,0.000000000000000010287433178827294,0.0000000000000000029439862122108595,0.0000000000000000024376736077403733
0.12040133779264214,-2.586909038943796,-0.004663219886869713,0.000000000000000009726507251073556,0.000000000000000026285050369439686,0.0000000000000000026430122630633974,0.00000000000000001544756115653765
0.12709030100334448,-2.564687468760583,-0.005225734739798951,-0.0000000000000000004977799240491741,0.00000000000000000749241973288398,-0.000000000000000009553124922159145,0.000000000000000003362733886675922
0.13377926421404682,-2.542574946181079,-0.005833848025088633,-0.000000000000000010968435492996519,0.000000000000000011954970579382558,-0.00000000000000000046585503557252925,0.000000000000000000941092914118881
0.14046822742474915,-2.520504612711502,-0.006489408610275784,0.0000000000000000004431272358751554,0.000000000000000009786530270390731,-0.0000000000000000016744376693002618,-0.000000000000000008388280654939223
0.14715719063545152,-2.4985934844166695,-0.007196063360393162,0.0000000000000000060769161015638974,0.000000000000000006192178547016534,0.000000000000000003965897942017271,-0.000000000000000013064781244819814
0.15384615384615385,-2.4768363682865315,-0.007956567417155733,-0.00000000000000002278329182047629,0.000000000000000024719700254517382,0.00000000000000001927372509173705,0.0000000000000000011646649425080805
0.1605351170568562,-2.4550681139226302,-0.008769202726436049,-0.000000000000000047492601345458316,0.000000000000000037401486415670286,0.0000000000000000067055069909065815,0.000000000000000009694583240840348
0.16722408026755853,-2.4334438327840404,-0.009639639391060084,-0.00000000000000002635307193816619,0.00000000000000005011307683236527,-0.000000000000000009797259019930596,-0.0000000000000000040135467957326296
0.17391304347826086,-2.411879069604012,-0.01056927826572208,0.000000000000000024490592597805554,0.000000000000000036290199150001384,-0.000000000000000054498827538013493,0.000000000000000018372330180688642
0.1806020066889632,-2.390511543620748,-0.011562667030657586,0.000000000000000014526429858599913,0.000000000000000001206514558564202,-0.00000000000000002931095948470087,0.000000000000000013353320971720685
0.18729096989966554,-2.3692539857507264,-0.012621354258651907,0.000000000000000023121605358692213,-0.0000000000000000573300780227637,0.0000000000000000052802173859137354,-0.000000000000000006791174901588535
0.1939799331103679,-2.348058753454825,-0.013752846330113155,0.0000000000000000030629246154846394,-0.00000000000000006949977471640203,-0.000000000000000018786910246693736,0.000000000000000007915099010295052
0.20066889632107024,-2.326971534911189,-0.014959907361506798,0.000000000000000027026784296792716,-0.000000000000000019270732573534607,-0.000000000000000020843068240459367,-0.000000000000000025024396470207725
0.20735785953177258,-2.3060103149929527,-0.016244813382214472,0.0000000000000000030776163905312345,0.00000000000000004111954605220728,-0.000000000000000044291105239998295,-0.00000000000000005933168650770731
0.2140468227424749,-2.2851945964712073,-0.017608362929450436,0.000000000000000011506096888270971,-0.000000000000000005847747176677011,-0.00000000000000007417667194867522,-0.000000000000000045987170456050006
0.22073578595317725,-2.2643758102125857,-0.019052340443968797,0.00000000000000003521225572203784,0.00000000000000003432933901647653,-0.000000000000000024943046043029502,-0.000000000000000016375347770322048
0.22742474916387959,-2.243703281712641,-0.02058950253346034,-0.000000000000000047182268174184327,0.00000000000000010059292499730327,-0.000000000000000010878661853674641,-0.000000000000000028366038546402806
0.23411371237458195,-2.2232348542955913,-0.022218024137484877,0.000000000000000020625497896568092,0.00000000000000006631766578659796,-0.000000000000000048287007963914906,-0.000000000000000024004034942408297
0.2408026755852843,-2.2028117141805312,-0.023943590676849223,0.00000000000000003034723532463608,0.000000000000000050244158877724716,-0.00000000000000008058588334942385,0.000000000000000006124073050870334
0.24749163879598662,-2.182466331044246,-0.025772466332725463,-0.00000000000000007434399404679565,0.00000000000000009915870423773583,-0.000000000000000048076403497190187,-0.000000000000000010684448358032549
0.25418060200668896,-2.162266950251868,-0.027713516836076008,0.0008623742692989719,0.00000000000000017396421623543667,-0.000000000000000025020752086395862,-0.0008208797499645555
0.2608695652173913,-2.142192290689925,-0.029778237046649104,0.0020670713792616782,0.00000000000000015102909297462105,-0.00000000000000005447694383166391,-0.001898759044536913
0.26755852842809363,-2.122210129878182,-0.0319507827243479,0.0015114919400434107,0.00000000000000001106414474599626,0.00000000000000005386649724621988,-0.0011926980592997626
0.27424749163879597,-2.1022899863158075,-0.03425200981656685,0.001329951680218466,-0.00000000000000001333459504728934,-0.000000000000000007787534804993374,-0.00091080125387077
0.2809364548494983,-2.0825446206607303,-0.03668007686806684,0.0012418760601246278,0.000000000000000038237121350686786,0.00000000000000006018718348313936,-0.000741837933506104
0.28762541806020064,-2.118468846646533,-0.02607858518431495,0.03442708587669784,-0.05966867586180479,0.7196065963918428,-0.43527440013609264
0.29431438127090304,-2.098440180272479,-0.029873310502023152,0.03853380775088664,-0.06679119379478228,0.85310910259308,-0.516116758330859
0.3010033444816054,-2.0768807213191174,-0.034922257885205,0.042955578590202576,-0.07446337710505958,0.9506898312697676,-0.5779095584784367
0.3076923076923077,-2.056347413078909,-0.0386067838318629,0.04492075921177157,-0.0778978169260759,1.0172559157138168,-0.6238197864117461
0.31438127090301005,-2.0368561999231556,-0.03821211559034077,0.03817506198363171,-0.06628378301530356,1.2902920832779645,-0.7938834050418604
0.3210702341137124,-2.0155366703986557,-0.04081888896503891,0.03282022873471563,-0.0572436227417713,1.7220531828586538,-1.0719965134714498
0.3277591973244147,-1.9915856026704724,-0.056655376793364444,0.04421635507462103,-0.07689367717362498,2.2609920434354325,-1.5044482701179391
0.33444816053511706,-1.9649702057531246,-0.23370062277518056,1.1228596673175286,-1.9606410072081477,5.188038938230353,-2.9450169746115527
0.3411371237458194,-1.939016313555589,-0.35907973084365147,1.8702100850366823,-3.050519358511238,8.4564733608973,-4.522303624368201
0.34782608695652173,-1.9162590413842882,-0.033561774105980005,-0.22551409618949791,0.5010651349839804,2.7936090602434733,-1.2219406762155476
0.35451505016722407,-1.8925378768994028,0.02574150705738413,-0.021142452411519297,0.10805820916762111,1.2730745702729676,0.27020895336912365
0.3612040133779264,-1.863341153979899,0.043619907195061876,-0.010977940032204538,0.026407205496992055,-0.04394339856328995,0.12372817933606214
0.36789297658862874,-1.83775509507506,0.05094628732097186,-0.005775009180857449,0.011427120844806104,-0.3911487443327025,0.25054148570603635
0.3745819397993311,-1.8166280144087965,0.054296539218613826,-0.006868378193191469,0.01244402862782404,-0.62247299234907,0.3621905774560555
0.38127090301003347,-1.7957187547154412,0.056761977701928576,-0.01016730063183569,0.0177312003780375,-0.736527526141071,0.4070176936949418
0.3879598662207358,-1.7739659278759787,0.05930283670152743,-0.015089700636353844,0.026256753917031878,-0.8045612315448737,0.4440897208326485
0.39464882943143814,-1.7536040670414275,0.060471011931541974,-0.020238830976631247,0.03537861313944978,-0.8582117859492815,0.47921924946719896
0.4013377926421405,-1.734580939945867,0.06065488409175227,-0.025207818464469588,0.04411815592241846,-0.8774712360894116,0.49141017733898396
0.4080267558528428,-1.715996107837264,0.060797243095659266,-0.030471006013665425,0.0533444758267852,-0.865555794393648,0.4852475695230312
0.41471571906354515,-1.6976249090613666,0.06109759908719114,-0.035915546156018455,0.06307302563702458,-0.8515235752572844,0.49591595951214207
0.4214046822742475,-1.6795740935325403,0.061559768417023354,-0.04218684675180876,0.07165783556867095,-0.7262772975188534,0.45975056728409675
0.4280936454849498,-1.6621006549121913,0.06237921749434105,-0.047861152824085006,0.07821540800078483,-0.46002002344421333,0.32759933066384644
0.43478260869565216,-1.645364874838979,0.06384812087976623,-0.048849706338074846,0.08429896088275493,-0.2826733937203155,0.20897665580276006
0.4414715719063545,-1.6279871357732212,0.06645954761053037,-0.051057363222614484,0.09050621465801077,-0.2101684433999852,0.1928710617656938
0.44816053511705684,-1.6103602810045023,0.07124099130327158,-0.04818695175220996,0.09460311887341141,-0.17489552807854183,0.3104445447590789
0.45484949832775917,-1.5940070155664599,0.08107234300168886,-0.040505063947853845,0.08366690430818327,-0.2837334273745794,0.33491785248807115
0.46153846153846156,-1.5781271779135868,0.0974277832710571,0.0019314037170196016,0.02133505419348336,-0.45719500641963645,0.39676815316966313
0.4682274247491639,-1.5623816319884682,0.13399971875303737,0.18714460922429738,-0.2789933572291803,-0.8945418732289256,0.6298171267046382
0.47491638795986624,-1.5469126128029247,0.2261211134203065,0.7716092344790257,-1.279490279487007,-2.2311387595280165,1.2192399841643793
0.4816053511705686,-1.5314617714451995,1.1774279147858209,-14.216996752131186,23.775312222010896,-9.997981700319311,6.227509665326236
0.4882943143812709,-1.515585959312663,0.9613394071820366,-11.16272413977055,18.684003775755134,-9.127006208368613,5.645455299838622
0.49498327759197325,-1.499487024020623,0.2473425801698632,-0.548903701109432,0.9490457963621647,-4.350530489340683,2.6044724773501633
0.5016722408026756,-1.4835174587319004,0.17455006875376156,-0.33892503836898424,0.5792230014944737,-3.8941659364519037,2.4910159796631284
0.5083612040133779,-1.4676903100711862,0.14986705486104848,-0.30324013644725667,0.5247497862270296,-3.5671316556951345,2.1469146893070072
0.5150501672240803,-1.452020868389722,0.13697076584957796,-0.30098799702717155,0.5222192340746551,-3.3724457599925466,2.0044322636575345
0.5217391304347826,-1.436497729047451,0.13008964596349157,-0.3130593030753204,0.5432855470923386,-3.262061153187091,1.9350986793273524
0.5284280936454849,-1.4211150634712488,0.1268815516181384,-0.33252871451405025,0.5773271709686705,-3.21136634706651,1.896005967894598
0.5351170568561873,-1.4058800314039224,0.1261723591484861,-0.35733182029894717,0.6205148408300573,-3.1993223390642305,1.881440126066238
0.5418060200668896,-1.3908291822267997,0.12720518630527317,-0.38672215671047716,0.6715935755714898,-3.212511763436094,1.884267125511519
0.5484949832775919,-1.3759118536206894,0.1291189094516369,-0.41960547856151553,0.728716176238253,-3.2398253563067207,1.8971974846734032
0.5551839464882943,-1.3611292803399544,0.13173784116637438,-0.45606918983773137,0.7920524675519484,-3.279055412142949,1.9187727649080102
0.5618729096989966,-1.3465416843702693,0.1350607740111469,-0.4977670016149833,0.864508154142131,-3.3309677038938577,1.9496275345524503
0.568561872909699,-1.3321334717137086,0.13883465207468915,-0.5459786960440975,0.9483958512257906,-3.3924792404929445,1.989197594372704
0.5752508361204013,-1.3463512797945782,-0.5173775512884654,0.0017236585361975658,0.00000000000000001034621046839854,0.0000000000000006963294634036269,0.0005812381502178366
0.5819397993311036,-1.334217494958994,-0.5506981480198184,0.001769871715276524,-0.0000000000000013006586756664803,0.0000000000000001937367976953378,0.0006040256186542269
0.5886287625418061,-1.3222991550682082,-0.5851008553873023,0.0018160892378282928,-0.000000000000002874672520197213,-0.0000000000000004179067765182489,0.0006264695075844408
0.5953177257525084,-1.3115211635561717,-0.6243190257643542,0.001860708607363357,-0.000000000000001809448701205413,-0.00000000000000010110300989370376,0.0006470499498959752
0.6020066889632107,-1.3009517456647905,-0.6646373436510835,0.001904867130194541,-0.0000000000000008734141673752674,0.00000000000000010036365392389835,0.000667259672675518
0.6086956521739131,-1.2918118419237024,-0.7124958117617552,0.0019458671189683378,-0.000000000000000822812367677392,-0.0000000000000004886628424107479,0.0006849285716677248
0.6153846153846154,-1.2826719381826144,-0.760354279872427,0.0019868671077421345,-0.0000000000000007722105679795165,-0.0000000000000010776893387453941,0.0007025974706599316
0.6220735785953178,-1.271948159597427,-0.8055293680369621,0.0020380210379940373,-0.00000000000000096936265314836,-0.0000000000000007089441621786303,0.0007236406142185544
0.6287625418060201,-1.2608548443999834,-0.8500783921293354,0.0020915440021054303,-0.0000000000000012243186308583331,-0.00000000000000011673960014505917,0.00074547100868317
0.6354515050167224,-1.2487517204969893,-0.8935276497240039,0.002154193602292576,-0.0000000000000008730544414845145,0.0000000000000005289426014138961,0.0007696600300705716
0.6421404682274248,-1.2364197249761557,-0.9368507511107041,0.002219358082237622,-0.0000000000000004898825911366948,0.0000000000000008187744047723686,0.000794418603602439
0.6488294314381271,-1.223498525353131,-0.9801393994095227,0.0022920494615547918,-0.00000000000000027335244483549173,-0.0000000000000006752918755289394,0.000820725902821725
0.6555183946488294,-1.2102943208770849,-1.0237459006873655,0.002369604611817576,0.00000000000000003750968700391962,-0.0000000000000009614219585490008,0.0008478754121869391
0.6622073578595318,-1.196839111293867,-1.0676343148731076,0.002451473579792068,0.00000000000000043203755774128737,-0.00000000000000017619884243398713,0.000875771901844833
0.6688963210702341,-1.1828907149792336,-1.112626214466257,0.0025426324331469952,0.0000000000000008742701536399942,-0.0000000000000008341886684073884,0.00090520114896382
0.6755852842809364,-1.1687531965529034,-1.1581345369480613,0.002638575624218788,0.0000000000000003006961501809397,-0.00000000000000039380314748907924,0.0009353249014101174
0.6822742474916388,-1.154404381105268,-1.2042338936611074,0.0027400483262821564,-0.0000000000000015636735578903526,0.0000000000000015227430415852588,0.0009662406814796441
0.6889632107023411,-1.1396548527057668,-1.2516539688410542,0.002852001236722539,-0.000000000000001997636794165594,-0.0000000000000008922644971525091,0.0009985575998041959
0.6956521739130435,-1.124746036085301,-1.3001672115192915,0.0029699958113618107,-0.0000000000000009383563257819832,-0.000000000000001782519664787427,0.0010315538079181217
0.7023411371237458,-1.1096806083146655,-1.3498054763910265,0.0030943237025751295,0.0000000000000011052078808308165,-0.000000000000001105816783219829,0.001065241955404359
0.7090301003344481,-1.094410479631916,-1.4008839222105112,0.0032281505425200206,0.00000000000000110025227737312,0.00000000000000017264704855235967,0.0010999049782463171
0.7157190635451505,-1.0789891589009377,-1.4536109940367588,0.0033699366021329954,0.00000000000000022085259190655055,-0.00000000000000012347123829750977,0.0011352790923075103
0.7224080267558528,-1.0634389780386606,-1.5077807823093201,0.0035185280071525623,-0.0000000000000002236927089462599,-0.0000000000000008658309437753965,0.0011712186585955667
0.7290969899665551,-1.0477578879072054,-1.563473874659187,0.0036740798097521297,0.0000000000000005652281169786349,-0.0000000000000013702965217721855,0.0012077026588835917
0.7357859531772575,-1.0319296891401577,-1.622476322083502,0.0038390946206770292,-0.000000000000001213148710800986,0.00000000000000019262202231730355,0.001244787293175946
0.7424749163879598,-1.0159513718576507,-1.6832315443192267,0.004009591560482018,0.0000000000000004560162448263344,0.00000000000000029996968826411067,0.0012821665056123792
0.7491638795986622,-0.9999055066087364,-1.7460502083752973,0.004183753492009185,0.0000000000000012289983022260167,0.0000000000000009200660256582036,0.0013195746934046631
0.7558528428093646,-0.9838620452626462,-1.8112150688234572,0.004359738415964707,-0.000000000000002197589842517909,0.0000000000000032569696349817393,0.0013567619375963883
0.7625418060200669,-0.9677529844120335,-1.8799251122167078,0.004533269463047043,0.00000000000000017336392280219783,-0.0000000000000036879865672238415,0.001393309997804316
0.7692307692307693,-0.9517918745217621,-1.9516114301963037,0.0046962926876044945,0.00000000000000043761043543618377,-0.000000000000000997133427524122,0.001428381281823301
