# n,energy,berry,bcd_x,bcd_y,qmd_x,qmd_y
0.0000003333333333333333,-3.104634585269097,0.000000009952860791945312,0,0,0,0
0.006688963210702341,-3.056554428320032,0.00021002189894993013,-0.0000000000000000002361145953165174,0.0000000000000000011858261518383962,0.0000000000000000004581378832946212,-0.0000000000000000003733081709796875
0.013377926421404682,-3.009182087965284,0.00045274341180308786,-0.00000000000000000060963792160715155,0.00000000000000000010898815950769164,-0.0000000000000000008729934443238865,-0.0000000000000000002971783323169317
0.020066889632107024,-2.962453618388186,0.0007501390887616695,0.0000000000000000009422921644309392,0.000000000000000006564863309931506,0.0000000000000000019166939304819896,-0.00000000000000000013275943812256154
0.026755852842809364,-2.9171344217901307,0.001119952676991894,-0.00000000000000000010495727812724408,0.0000000000000000007961618860409211,-0.0000000000000000012357818077182036,-0.0000000000000000007893687283971281
0.033444816053511704,-2.887634135436316,0.0013360365381810027,0.0000000000000000028083913699586636,0.000000000000000005024671661598483,-0.0000000000000000006865326228534165,0.0000000000000000029077851362425003
0.04013377926421405,-2.8643686673048685,0.001489100087454123,0.000000000000000003764030219639969,0.000000000000000008956178387692915,-0.000000000000000005178144657727138,0.000000000000000000963295443345911
0.046822742474916385,-2.841284409621421,0.0016734699090874652,0.0000000000000000028197039748463635,0.000000000000000008289712803406331,0.0000000000000000023241937434352936,0.0000000000000000043267776298360504
0.05351170568561873,-2.8183927369831876,0.0018928522667865497,0.0000000000000000007912016818687947,0.000000000000000021546166295682664,0.000000000000000007329926441332119,0.00000000000000000403731065860255
0.06020066889632107,-2.795646525384832,0.002146702942735008,0.0000000000000000019558829511309744,0.00000000000000002846675930130556,0.00000000000000001110233401425118,0.000000000000000004698697172794083
0.06688963210702341,-2.7730757212365993,0.0024387025433251068,-0.00002819180925451922,0.000015755641865150034,0.000019731484262994903,-0.00002406985389716458
0.07357859531772576,-2.750679020197065,0.0027696552298422496,-0.00006210983991052101,0.000033999029719947956,0.000047626960239302034,-0.00004953416520750173
0.0802675585284281,-2.7284551632614997,0.0031444054597618244,-0.00005070368083120515,0.000026297846051357488,0.0000467243856751046,-0.000033140266419257963
0.08695652173913043,-2.7063935057041824,0.0035639405632573373,-0.00005008494300614025,0.000024831690218187414,0.0000507202918411626,-0.000026870166244635583
0.09364548494983277,-2.6844878879972573,0.004034163299102012,-0.00005245300672640102,0.00002495802841458485,0.00005538021598142476,-0.000022919095810604227
0.10033444816053512,-2.662750275084842,0.004556152999346956,-0.00005646142130153625,0.000025793498524240943,0.000059621733905313004,-0.00001984257356175129
0.10702341137123746,-2.641177108386936,0.00513595503918745,-0.00006169376576456692,0.000027040984661101098,0.0000626084910078387,-0.00001714903314348562
0.11371237458193979,-2.619757493148698,0.005777002820203567,-0.00006808236911952125,0.000028583796943146062,0.00006342411116860456,-0.000014679319015773965
0.12040133779264214,-2.598548223733598,0.006488182131789825,-0.0000755981675117804,0.00003030704073432386,0.000060632058100310226,-0.000012434187569685991
0.12709030100334448,-2.5774729094144377,0.007272046801285846,-0.00008007127786426672,0.000029659879036623743,0.000053960459943480605,-0.00001545247094383864
0.13377926421404682,-2.556575609183799,0.008130976203614027,-0.00002936784887590115,-0.000004361286654802957,0.00005980892165915293,-0.00008506630453236017
0.14046822742474915,-2.5358362690435774,0.009078715387940299,-0.000053693868258113826,0.0000044103355324496895,0.00001618176191569808,-0.00007782999532169953
0.14715719063545152,-2.5152624352991224,0.010121405575923633,-0.0000688411465373542,0.00000696179673874957,-0.00003654578204208795,-0.00008172933891412387
0.15384615384615385,-2.494840157175826,0.011267663528992684,-0.00008235259768938687,0.000007446556986139994,-0.00010946994082541784,-0.00009093998519699288
0.1605351170568562,-2.474611487097031,0.012530588590517502,-0.00009580789535483603,0.0000066141689948866285,-0.0002117195097568998,-0.0001055433695013779
0.16722408026755853,-2.45454878402495,0.013928571867360785,-0.00010983813413968498,0.000004694953901565959,-0.00035473598495890156,-0.00012710281694116327
0.17391304347826086,-2.434642320016998,0.01547941062913482,-0.00012464258080672544,0.0000016768353511658476,-0.0005534449279580849,-0.00015846997760566724
0.1806020066889632,-2.4149364069451056,0.017207494373428778,-0.00014027520210365988,-0.0000025040115319272784,-0.0008267778965579207,-0.00020369473803052299
0.18729096989966554,-2.3954010338162273,0.019155175885323956,-0.00015658900675270774,-0.000007954713497139902,-0.0012005371698277749,-0.0002687613261178952
0.1939799331103679,-2.3760352850941913,0.021368081721208538,-0.00017335905266895854,-0.000014803002043791559,-0.0017084380475534348,-0.000361993107072999
0.20066889632107024,-2.3568834572977586,0.023947114157785162,-0.00019005556863774072,-0.000023214924492329538,-0.0024005702747672782,-0.0004964500580506008
0.20735785953177258,-2.337965052742815,0.02705682554758464,-0.00020585813240835517,-0.000033320510237950496,-0.003341634548811128,-0.000690223831623922
0.2140468227424749,-2.3192909154282995,0.03090386187900193,-0.00021965203275974818,-0.00004517104481058921,-0.00460408915976613,-0.0009652248351831522
0.22073578595317725,-2.300888450664236,0.035986060465171874,-0.00022993721789499894,-0.000058766892957370535,-0.006283935450510882,-0.0013516429965095243
0.22742474916387959,-2.282834534403798,0.043375707883965844,-0.00023476609791437831,-0.00007398946380808248,-0.008490857178460593,-0.001886437982864633
0.23411371237458195,-2.2654537750628303,0.05642982330116396,-0.0002320609472023534,-0.00009033925436566967,-0.011299536889174452,-0.0026009036088316274
0.2408026755852843,-2.2487047387407593,0.07760769903588484,-0.0002200491367586432,-0.00010745832332386081,-0.014804051961599821,-0.003532159807803181
0.24749163879598662,-2.231874193955175,0.10365065777255919,-0.00019567179526048406,-0.00012568861178704677,-0.019305875456846765,-0.004777186883138561
0.25418060200668896,-2.2125565360624657,0.11663338930420465,-0.0001452899140910707,-0.00014711586484664305,-0.02616751682228914,-0.006763404198340302
0.2608695652173913,-2.1920020062295844,0.12314758486866727,-0.00005644745476113905,-0.0001685630974309342,-0.036037891334442546,-0.009762052146938203
0.26755852842809363,-2.170533581312118,0.123186135205362,0.0000867595989735885,-0.00018563283461622433,-0.04997090399446919,-0.01420467087359798
0.27424749163879597,-2.150238701074058,0.10942089926915391,0.00027858890769800175,-0.00019161788196966247,-0.06722675800301244,-0.019953081007196814
0.2809364548494983,-2.1330264314517984,0.080910005177553,0.0004871072897935664,-0.00018484533094229331,-0.08525490710162005,-0.026167962815520543
0.28762541806020064,-2.116132261677323,0.058757095619560926,0.0007442958469941881,-0.00015786633211781095,-0.10705543630991965,-0.03396740210172875
0.29431438127090304,-2.0996240717543566,0.03845280921976761,0.0010367552630664,-0.00010518172083205187,-0.13194817185110724,-0.04316581473882992
0.3010033444816054,-2.083730652552596,0.016234442755109622,0.001344444374057922,-0.000024660528070961753,-0.1587233842607209,-0.053330028001700246
0.3076923076923077,-2.0683635238239333,-0.00942947607781779,0.002392193745034154,-0.00032051823428040654,-0.1940072655093346,-0.06525368335083606
0.31438127090301005,-2.0534021180673387,-0.03950753263540622,0.005012332828043548,-0.001452774900240175,-0.24574687628608394,-0.07999751652561585
0.3210702341137124,-2.036159689014226,-0.05645188918134963,0.003901757650785642,-0.0003224187211584152,-0.29536345168436173,-0.10099361476549937
0.3277591973244147,-2.0178999811008285,-0.0672443750931469,0.0037541637001800698,0.00019976227750958156,-0.3597096346148471,-0.1269130866753039
0.33444816053511706,-1.9988334536180374,-0.07238911289480708,0.003943369929507059,0.0004320862935703011,-0.43576147773952106,-0.1579618562952231
0.3411371237458194,-1.9790744797575015,-0.07204781286216612,0.0040907467158683535,0.0005475993242344026,-0.5215732742948765,-0.194316528144386
0.34782608695652173,-1.9605233618369828,-0.05830365985829179,0.004067474633692484,0.0005862037109944539,-0.6090469894630096,-0.23263772969630234
0.35451505016722407,-1.9438253320495635,-0.035531951164295084,0.0038546285464499024,0.0005865839975527794,-0.6985780246182366,-0.2717970718955641
0.3612040133779264,-1.9282128482231,-0.010620457182963746,0.0034578163121577765,0.0005682830085374705,-0.8037176129496516,-0.31357664937244445
0.36789297658862874,-1.9127962324685561,0.012368736640637347,0.0028005723175173916,0.0005367233982843168,-0.9549202126475016,-0.36201983479815003
0.3745819397993311,-1.8975931683356062,0.03590060281619361,0.0006583073222325348,0.001094168880945402,-1.7515969725025986,-0.021450649814409972
0.38127090301003347,-1.8826184820570184,0.0687425925134593,-0.0006316620339186336,0.0015638372308354178,-1.2819180411728708,-0.04774059961584104
0.3879598662207358,-1.8680022427847056,0.10714533075531715,-0.000809868280610937,0.0023333007992396917,-0.11332598712405534,-0.2660341455097497
0.39464882943143814,-1.854167647063875,0.14034448379225287,0.0003754433392681141,0.004677803968083928,-0.08959308260182458,-0.05157411519899563
0.4013377926421405,-1.840118839260991,0.15578507844835152,0.0009439135594930816,0.0061836501510730965,-0.053991268679750126,0.024837628259393143
0.4080267558528428,-1.826024621418781,0.1641682175750251,0.0011990325715833523,0.007255570682397281,-0.02532066316771917,0.04577134780789638
0.41471571906354515,-1.8119912713276032,0.17037630256008748,0.001229017930856869,0.008004089418239442,-0.020739844251127675,0.04844607136623578
0.4214046822742475,-1.7980735882350922,0.17613905539376457,0.0011494992807639813,0.00848053445748104,-0.023477097404745448,0.044552043252796825
0.4280936454849498,-1.7842481264283911,0.18236357788156618,0.0010315490754242518,0.008795071979242206,-0.03192415669460042,0.03617469679830153
0.43478260869565216,-1.7705278778046905,0.18932535674569484,0.000882344684226934,0.008939066388406875,-0.04685323003735749,0.02287666660798122
0.4414715719063545,-1.7570905588878585,0.19859429444272741,0.0008475432509880113,0.008973679898883107,-0.08184522108032319,-0.00391840285365188
0.44816053511705684,-1.7438007388212362,0.21009873401588386,0.0009191129257256461,0.009422061496125973,-0.13628220663195423,-0.04274292967649952
0.45484949832775917,-1.7306797322856506,0.22431744684528426,0.0011194715607844969,0.010414994900995424,-0.21432909048752016,-0.09608817342930938
0.46153846153846156,-1.7180307118930003,0.2435505649731664,0.0007859480698608358,0.010189359564500745,-0.273104084866724,-0.13169337466314104
0.4682274247491639,-1.7056494919331242,0.265110476403031,0.00039556515751024526,0.009729216046248573,-0.3214393530373725,-0.16197653427211423
0.47491638795986624,-1.693791959915595,0.290953424170967,0.000020762765382687366,0.009045880588120508,-0.34961457598092893,-0.1842961997517644
0.4816053511705686,-1.6823882415139049,0.322241620407968,-0.00021436891726885974,0.008405621457754291,-0.3706485079485198,-0.20313217114735385
0.4882943143812709,-1.6713099159690308,0.3574341617187661,-0.0003493540869385944,0.007796248860674797,-0.3865620006191779,-0.21947026867860261
0.49498327759197325,-1.660942170774011,0.40455774910871445,-0.00030455789470478834,0.007239705614042772,-0.3972282296732814,-0.23273916703222597
0.5016722408026756,-1.650802883390814,0.45551727240732626,-0.00020196041855511854,0.006700147466711215,-0.4062074174742177,-0.24502129094392777
0.5083612040133779,-1.6417373923053609,0.53181049932356,0.0000558886957395891,0.0062318563367485735,-0.4092102847289746,-0.2531669925319417
0.5150501672240803,-1.6330074115636688,0.6160193054118799,0.0003622465733750935,0.005785832764931268,-0.4103458356546598,-0.26002025860059635
0.5217391304347826,-1.6253043887218273,0.7327200105164874,0.000742651322443673,0.0054575249176256595,-0.3967175392769876,-0.25669044500364857
0.5284280936454849,-1.6188815002391916,0.8899228592168962,0.001215357756252158,0.005275953312952917,-0.36468565672519515,-0.24066711187258658
0.5351170568561873,-1.6124586117565558,1.0471257079173049,0.001688064190060643,0.005094381708280174,-0.33265377417340264,-0.22464377874152458
0.5418060200668896,-1.604987668706558,1.171922881287546,0.00313645695382322,0.0047898005553642965,-0.6117225034403313,0.043293376900217506
0.5484949832775919,-1.5950257003288104,1.2196979600797615,0.0069038695811913416,0.004192849224624569,-1.6302179072835021,0.9099815249296013
0.5551839464882943,-1.5848571478864637,1.2567405772750326,0.00973250423492161,0.0036642743157287304,-1.9083696697975434,1.3545686960051062
0.5618729096989966,-1.5741181177711794,1.2641457210833762,0.009968722697957403,0.0033245194985133046,-0.14207759537115283,0.6335326446664508
0.568561872909699,-1.5634159765416669,1.2577696521749389,0.010338826953413675,0.0026450150929563836,0.8636407148466967,0.18882377117688517
0.5752508361204013,-1.5527733938203012,1.2291432915407743,0.010925094909446048,0.0014169720638653339,0.6413837749642375,0.190255628930989
0.5819397993311036,-1.5425451788772266,1.182091859361088,0.011601753786280505,-0.000006328472415606523,0.508458968407487,0.1807668254626986
0.5886287625418061,-1.5327622219350037,1.1152418063626128,0.012375542031758134,-0.0016394425411609325,0.4715258126988442,0.15954324907380127
0.5953177257525084,-1.5241809319093067,1.0130925746051762,0.013000277251014995,-0.0031580760692058213,0.4479648555268744,0.1444513170927715
0.6020066889632107,-1.517296370739188,0.8611016318420878,0.01341455267719447,-0.004515065439342025,0.4432851663732377,0.13801714031486373
0.6086956521739131,-1.5104118095690695,0.7091106890789991,0.013828828103373948,-0.005872054809478229,0.4386054772196011,0.13158296353695595
0.6153846153846154,-1.5017870868997183,0.5871462882115214,0.014111951907116643,-0.0076585662618870965,0.4394565009438315,0.12766605612600052
0.6220735785953178,-1.4912526495585463,0.49813407461365977,0.014251145289624833,-0.009916450413179855,0.4463771242616333,0.12651168899944618
0.6287625418060201,-1.479666202638142,0.4169355919006943,0.013868965575474856,-0.01233164325970236,0.4587790125829842,0.12903551342437514
0.6354515050167224,-1.467242444747146,0.3419561804968959,0.013071816813303787,-0.014872040570980218,0.47554352593246435,0.13448686835738277
0.6421404682274248,-1.4537966300134149,0.261076614572254,0.010701036768211433,-0.01694545615049861,0.49767154556445187,0.14372675742283944
0.6488294314381271,-1.4398829770296386,0.17135720505183522,0.007626726073439349,-0.01879663691923089,0.5218996269980535,0.1602668994511405
0.6555183946488294,-1.4254373071510005,0.06962651821437507,0.0038916818451320023,-0.02036586433227784,0.5476867482157481,0.18516948702103284
0.6622073578595318,-1.4102857211330815,-0.0646628749453861,0.0033339690215406677,-0.020744186321268086,0.5531596947493679,0.1849093999021052
0.6688963210702341,-1.3946627326316638,-0.24444198425933547,0.002153855610698205,-0.020614093729857244,0.556827885998803,0.18574408943538756
0.6755852842809364,-1.377501211986402,-0.31622672792625256,0.00017008432041052323,-0.019959417220998768,0.5553541704320009,0.18604457726746434
0.6822742474916388,-1.358399783519596,-0.18406307189355953,-0.002801606691593678,-0.01879679547464545,0.5424015695047748,0.18298400760493655
0.6889632107023411,-1.3392504373606233,0.011215076090612328,-0.00622244980825162,-0.017543725663560456,0.5150151815961769,0.17450307837264975
0.6956521739130435,-1.3205344733396718,0.2622297568498008,-0.009454285156158853,-0.01657953737041074,0.47481463786839845,0.1606863929390513
0.7023411371237458,-1.302587971898381,0.5953717362001709,-0.011896326467786272,-0.016148706719846747,0.42660236870366486,0.14313323014475807
0.7090301003344481,-1.2859503882355883,1.043467384885596,-0.012907103206511837,-0.01644789953898385,0.37700829226204735,0.12394206699558893
0.7157190635451505,-1.2679809872945909,1.3024027976825194,-0.004850941493288534,-0.02230671531494515,0.33911827648470594,0.08872524679361565
0.7224080267558528,-1.2492367364502706,1.507084518287138,-0.012455704062555356,-0.01719429807178366,0.2673159916507337,0.08472246768234022
0.7290969899665551,-1.2298973956471626,1.7129824413319226,-0.016417195931975787,-0.012919698968940381,0.2155350739775662,0.07515628704975819
0.7357859531772575,-1.210031364085037,1.9616714591509745,-0.01658390399397056,-0.010423771739882945,0.1756270916194089,0.06012617114732989
0.7424749163879598,-1.187877780132284,2.1003853453471075,-0.015955781489420905,-0.00806052619652644,0.13483091436530464,0.04518025458685332
0.7491638795986622,-1.163514374208338,2.0095827356247167,-0.014562103267685129,-0.005943006544273654,0.09688638229441035,0.03179952115311186
0.7558528428093646,-1.139726530905534,1.8269741244335727,-0.012764646562012379,-0.004355527042583844,0.06859729613320287,0.022327458997059072
0.7625418060200669,-1.1175389666782876,1.5431036004459604,-0.010981519031613627,-0.003191363244840269,0.04864826067138126,0.01597414471691512
0.7692307692307693,-1.0971459383496611,1.1658518727790395,-0.009369906750760078,-0.002338175412704663,0.03484198697083812,0.011795707206333349
0.7759197324414716,-1.0759086272952614,0.9639399738934227,-0.007795344181480606,-0.0016332776295403025,0.024253690808325897,0.008770618268463232
0.782608695652174,-1.0535701419002277,0.8776874535810242,-0.006295419411614864,-0.0010519807922734763,0.016273794421695117,0.006642457072191886
0.7892976588628763,-1.030506686277189,0.8316901058372491,-0.004927221616918458,-0.0005862676927372965,0.010496065487676027,0.0052286810706548715
0.7959866220735786,-1.0068818390253278,0.8046002687127419,-0.0037101035979548213,-0.00022095125614536007,0.0064142809232013015,0.004338543468766658
0.802675585284281,-0.982762630009854,0.7880418367636713,-0.0026418471518668894,0.000059101689038872904,0.003578373450025387,0.00381750129673289
0.8093645484949833,-0.9580685423842901,0.7777800857098925,-0.0017178726342998963,0.00026083328159604523,0.001681541623027642,0.0035674898989957785
0.8160535117056856,-0.9328575783438514,0.7718898449881371,-0.0009170665911612506,0.00039506866643981907,0.0004103963449463902,0.0034978610618352827
0.822742474916388,-0.9071953614801146,0.7685861480803974,-0.00021214802325367666,0.00047061302776516,-0.00046615665508299264,0.003548331494764472
0.8294314381270903,-0.8810566813561672,0.7672528440449158,0.0004179003094505442,0.0004894317051734196,-0.001077896294012446,0.003692064322256764
0.8361204013377926,-0.8543475179942264,0.7675101855795295,0.0009894958531766692,0.00044097575453675786,-0.0014999887662104808,0.003928580560021304
0.842809364548495,-0.8271835582743962,0.7691225465642215,0.001534867426008829,0.00032504209203222033,-0.0018228567538702552,0.004249036223046741
0.8494983277591973,-0.7994836398956562,0.7717871116141541,0.002088177416055808,0.00013112654723978738,-0.0020960800104434484,0.004666060437637822
0.8561872909698997,-0.7712481110817083,0.7752517462558226,0.002715160484295964,-0.00018714303367463341,-0.002353395369100647,0.005247148051004953
0.862876254180602,-0.742547024630852,0.779723933773573,0.003510439582798584,-0.0006673154955323939,-0.002631295594551923,0.00605823415400169
0.8695652173913043,-0.7132557459083686,0.7849411693609012,0.004798442542461791,-0.0014915142916927622,-0.002986368778404741,0.007397822887596779
0.8762541806020067,-0.6834179324596604,0.7910562740571028,0.007765590950602473,-0.0033224813808600943,-0.0035838264612949393,0.010313066743668851
0.882943143812709,-0.653045801807063,0.798068422643732,0.01588125613305437,-0.008080638053393903,-0.004874542537316263,0.01787948317925084
