# n,energy,berry,bcd_x,bcd_y,qmd_x,qmd_y
0.00000016666666666666665,-3.113707757671412,0.000000010267008770490366,0,0,0,0
0.006688963210702341,-3.0657776141468567,0.0003833391851082397,0.0011705067153072325,-0.0020273750455241353,-0.00021627365672959172,0.00012486427489954765
0.013377926421404682,-3.018930221025635,0.0007218687611180805,0.002813073222714075,-0.004872386164681214,-0.0007602618992489422,0.0004389375451354879
0.020066889632107024,-2.9731898325865718,0.001043475561417906,0.004255980613505009,-0.007371575724497654,-0.0019085746006400437,0.001101916130135818
0.026755852842809364,-2.9392509072085335,0.0012573008372767608,0.0052192455636234725,-0.009039997000997021,-0.0034757617332081933,0.002006733770806389
0.033444816053511704,-2.91614856594229,0.0013748886212208925,0.0061677189908322955,-0.010682800319610653,-0.005002729019382279,0.002888332358568886
0.04013377926421405,-2.893513469615398,0.001525480773554659,0.0071400409749635295,-0.012366912177048809,-0.006965314614053331,0.004021430782870387
0.046822742474916385,-2.8711556028374003,0.0017165564577812935,0.007980757491516569,-0.013823077019073588,-0.009433789026026705,0.005446595027094803
0.05351170568561873,-2.849094609479322,0.0019586849389667117,0.008582043180422067,-0.014864533565031545,-0.012496448090216657,0.007214833382548998
0.06020066889632107,-2.8273139105574354,0.0022581677425280618,0.00887108787684925,-0.015296251869933475,-0.01588425967936077,0.009336824135361917
0.06688963210702341,-2.8058297522593105,0.0026164508209091993,0.008763612667021636,-0.014788180467098226,-0.01814238684260488,0.011705181759405619
0.07357859531772576,-2.7846636187530414,0.003035951774332048,0.008115271993815534,-0.014554145064425253,-0.025069310317102887,0.014995747768628484
0.0802675585284281,-2.7637701777206938,0.0035296683469971256,0.007222036030477125,-0.013073786137155376,-0.031046601825772794,0.01879246549724027
0.08695652173913043,-2.7431839155175943,0.004099879291652744,0.005839192556671978,-0.010801947414707967,-0.03806258535078748,0.023269189046349135
0.09364548494983277,-2.7228967554079673,0.004751845683066776,0.003958048605826373,-0.007697004516183782,-0.04631558958001768,0.028532980600041922
0.10033444816053512,-2.7029149560871844,0.005492862732808965,0.0015647263588886022,-0.003728873293463599,-0.0560140014798317,0.03466250708946304
0.10702341137123746,-2.6832399196878995,0.006334505541335338,-0.0013469801116775793,0.0011171272226143524,-0.06738150054242395,0.041698106122681274
0.11371237458193979,-2.663883974695491,0.007281885065746388,-0.004764173502541465,0.0068271724888630874,-0.08061900207321136,0.04961125325822789
0.12040133779264214,-2.6448289701992076,0.00834440069028476,-0.008606157176037495,0.013412932377732757,-0.09584111959903745,0.058266848344107225
0.12709030100334448,-2.6261250428921943,0.009546404117041324,-0.01251374373292894,0.021063775480945842,-0.11275971644620612,0.06725394113931345
0.13377926421404682,-2.607772848991586,0.010899159395926509,-0.01695336152268337,0.028729822668123423,-0.1317547031001684,0.07656175784231174
0.14046822742474915,-2.589809878558234,0.012418540390361154,-0.021277851934792688,0.0364494418828792,-0.15114564297928262,0.08539551070009374
0.14715719063545152,-2.572214588716594,0.01413902113013566,-0.025032087843321723,0.043412367518901325,-0.16873799895641797,0.09288043222363489
0.15384615384615385,-2.5550313653602816,0.01609193326377694,-0.027548238702132417,0.048504418843294234,-0.18092069290484267,0.09744826384177102
0.1605351170568562,-2.538282395855233,0.018312873252824168,-0.02798089654925004,0.05029389478289772,-0.1824477283742407,0.09651319657447631
0.16722408026755853,-2.5220078282390044,0.0208516109875486,-0.025422865182921733,0.04720700579920206,-0.1669626723890165,0.08666975603950125
0.17391304347826086,-2.506330287770837,0.02380809962063884,-0.01858310638865438,0.03699088925601397,-0.12504370990195054,0.06266172995094818
0.1806020066889632,-2.491975831442783,0.027743020347023962,-0.004807800972640733,0.014824152437476968,-0.038066049128176696,0.013637566935117716
0.18729096989966554,-2.4775246601830716,0.032058357669807705,0.015685235639290977,-0.019059367314227884,0.1100531345238778,-0.07037165235155311
0.1939799331103679,-2.462901215048078,0.03680885589540314,0.04485347573645792,-0.0681511142726203,0.3307385484605179,-0.19611676003615577
0.20066889632107024,-2.448495111432304,0.04257730589286949,0.09325338364075403,-0.1512784972998562,0.6677408795979336,-0.3895629156595258
0.20735785953177258,-2.434577989992127,0.04876106730032529,0.15026169295491215,-0.2501466148953311,1.033302389400149,-0.6003871476544826
0.2140468227424749,-2.420803435073552,0.05799112193591836,0.20845882956924766,-0.35168058893982085,1.4003950115986847,-0.8126631202903513
0.22073578595317725,-2.4068370030709625,0.07680849073278291,0.2588748085271326,-0.4406265621676531,1.7336301349053886,-1.0060705130164491
0.22742474916387959,-2.3942774767085995,0.11334126942210054,0.3015982915819403,-0.5166995840250712,2.0117828982379975,-1.1673549614409908
0.23411371237458195,-2.3821328924610996,0.1550549830645884,0.34206732417344066,-0.5890532022321873,2.2708645161449117,-1.3173881584042972
0.2408026755852843,-2.370104534530912,0.19787720620770494,0.38201659530184673,-0.6609678045259462,2.5025549624226286,-1.4504018650122412
0.24749163879598662,-2.3583135796249297,0.24108346536041883,0.4225074896296547,-0.7338420754207978,2.7151794860509666,-1.5716825629885414
0.25418060200668896,-2.3468455589255117,0.28481212040284903,0.4637351422980131,-0.8080217627874702,2.9018690468717065,-1.6770031027244632
0.2608695652173913,-2.3370136455792814,0.33084852340287474,0.49870537783627156,-0.8708992352969666,3.0577505805432414,-1.763673533713824
0.26755852842809363,-2.3280439961507655,0.37810115942766925,0.5303778193765619,-0.9278201964304751,3.1973956184035623,-1.840514954521011
0.27424749163879597,-2.3190833043940318,0.42452422132207385,0.5537739616792449,-0.9703927018564252,3.3907537411820683,-1.9475644958772658
0.2809364548494983,-2.3101364258272086,0.46966803730468326,0.5644076255286438,-0.9908391517171643,3.6669401993369455,-2.1011965104565564
0.28762541806020064,-2.301137763506878,0.5136648803527204,0.5756174852398221,-1.0122676133213047,3.952466637648998,-2.2604979147455153
0.29431438127090304,-2.291780361621486,0.5497158997819623,0.5908190264890547,-1.040499105641739,4.30269716155453,-2.4590748496955745
0.3010033444816054,-2.282422959736094,0.5857669192112039,0.606020567738287,-1.0687305979621733,4.65292768546006,-2.657651784645632
0.3076923076923077,-2.2719752463436773,0.6266393029055489,0.6175392124522507,-1.0905072521275518,5.073494099385712,-2.8992349985918286
0.31438127090301005,-2.261446656346484,0.667732537739257,0.6288244880006278,-1.1118646910682008,5.498137286526925,-3.1433648319848664
0.3210702341137124,-2.2496415561256238,0.7092599424237802,0.6373147383529779,-1.1279348683433916,5.961680437599613,-3.413333354345651
0.3277591973244147,-2.238275901222325,0.7381038446225793,0.6446017404872588,-1.1419252453878943,6.3983731317820345,-3.668551912331311
0.33444816053511706,-2.2279009289861142,0.7383541412727126,0.6491761476610128,-1.1512269343130659,6.774534330505229,-3.8905182465188592
0.3411371237458194,-2.2173659813469433,0.7370619171332076,0.6525602302531879,-1.1584424945995146,7.145667219743508,-4.109718593961599
0.34782608695652173,-2.206536683147638,0.7329314950579826,0.6537541467270407,-1.1618196327163295,7.507548150955606,-4.3238295980891115
0.35451505016722407,-2.1955830365572364,0.7264111799546878,0.653049002775179,-1.1618396869077185,7.861628365232556,-4.533642029734935
0.3612040133779264,-2.1844941278529895,0.7172912173610599,0.6502781229884014,-1.1582080149761946,8.207223214698162,-4.738778614791482
0.36789297658862874,-2.1734892105895613,0.7036723223384178,0.6449718908149087,-1.1500781839025815,8.538592872278375,-4.935830369519945
0.3745819397993311,-2.1625295794348944,0.6876277141561662,0.6382986593041867,-1.1395230566065548,8.862292658017031,-5.1285229835790425
0.38127090301003347,-2.153293568906557,0.6616845382106706,0.62091320573688,-1.1096615276428534,9.089436233344026,-5.262757425285335
0.3879598662207358,-2.1444915955098915,0.6332487337284853,0.6008302315758616,-1.074938316778429,9.292265304671714,-5.382271100099426
0.39464882943143814,-2.135065554464632,0.6087198059159821,0.5677160078449802,-1.0171245819211023,9.441598967660036,-5.469746615062246
0.4013377926421405,-2.12500097972634,0.5881883171531291,0.5212684669145702,-0.9356850789399956,9.53619718534182,-5.524441317602125
0.4080267558528428,-2.114638449220744,0.5680796367328912,0.46890491579085436,-0.843722820119095,9.599427186677016,-5.562311141023248
0.41471571906354515,-2.1039515931542816,0.5484311841984848,0.4101017735110508,-0.7403065165569799,9.628512809965619,-5.581867043535653
0.4214046822742475,-2.0929286968908936,0.5296272189251692,0.3491174582230996,-0.6329745700392675,9.657395389002298,-5.603571989889517
0.4280936454849498,-2.0816631697141,0.511432998311547,0.28655827182120364,-0.5228154140520372,9.686131364112555,-5.626828609153264
0.43478260869565216,-2.0698192981974186,0.49347327172500416,0.2240207894677067,-0.4124435046804451,9.75370196646228,-5.677240997594234
0.4414715719063545,-2.0577504754074805,0.47546530439937196,0.162087139027268,-0.30299747769045493,9.84089244349634,-5.741205577228203
0.44816053511705684,-2.0450606459123444,0.45631080687132597,0.10614705820034259,-0.20343707031382843,10.01505494856838,-5.8643088409253865
0.45484949832775917,-2.032074161429575,0.43488319219072086,0.06333216234845666,-0.12582595069542768,10.270445660544953,-6.044015385704884
0.46153846153846156,-2.018781593523118,0.41111021501999934,0.03405960261490033,-0.07086172199285834,10.609646214613834,-6.2821242051399215
0.4682274247491639,-2.0049171334751703,0.37408585577082454,0.10167711372789898,-0.17863504523144885,11.288464707130903,-6.766974913673419
0.47491638795986624,-1.990772988040334,0.31593001718368363,0.42541075843507214,-0.7025311252348649,12.510290738124361,-7.729643827481888
0.4816053511705686,-1.976325010893207,0.21332749851736282,1.5085857527674484,-2.677438944155038,15.255279633226031,-9.422825544101054
0.4882943143812709,-1.961412781826642,-0.1162039619350545,7.391253222759577,-14.487572044057337,27.403688972396083,-13.65663496980422
0.49498327759197325,-1.9461978639654536,-0.38727520143585814,-11.938910329895787,23.330547362285536,29.24398627804809,-16.811211519743797
0.5016722408026756,-1.931015924218771,-0.2547840121931609,-20.837611219216917,40.75902599316245,21.018883437323762,-13.239361279138672
0.5083612040133779,-1.9159936827713338,0.3870027923533943,-3.0071195246178695,5.770829366569993,4.395631716252263,-1.2133793715178693
0.5150501672240803,-1.9002928607730891,0.44655868948755906,-1.6794776720975564,3.1371979450734884,-1.2237233442108328,1.414674224041239
0.5217391304347826,-1.8838198991876156,0.4745630618711659,-1.1006381305955455,2.0015788132134116,-4.051922868415432,2.686292693785793
0.5284280936454849,-1.8663453946176365,0.48506807926634277,-0.8405727804031136,1.5074268125998698,-5.472567038663069,3.3195458494540437
0.5351170568561873,-1.8482325754029199,0.4874580241771088,-0.6900346476351618,1.2318832713243089,-6.149181923260958,3.629029241185351
0.5418060200668896,-1.8302492866729265,0.48713292696830535,-0.5996264360247391,1.070154541460696,-6.235931938398581,3.6373108027240724
0.5484949832775919,-1.8124643201160355,0.48561551316513196,-0.5395441548740046,0.9644354234055478,-5.7885300854519155,3.3485210685046924
0.5551839464882943,-1.7939366611695342,0.4829050354681536,-0.4970121995403824,0.8899970135400868,-4.9081246950359985,2.8339190371121266
0.5618729096989966,-1.7747601610928077,0.4805028979173274,-0.4697987218663826,0.8419233361118537,-4.214285593529505,2.4297634845859872
0.568561872909699,-1.7550806184165606,0.4792102498485271,-0.45074767031730617,0.8075159012728816,-3.6416508377792396,2.096962115277142
0.5752508361204013,-1.7349627341366105,0.4791320937882151,-0.4329354352442935,0.774611342532689,-3.1021694607524126,1.7839347532630896
0.5819397993311036,-1.7145268605968969,0.4806222618308402,-0.4098427139149448,0.7318307768601349,-2.510965626601148,1.4418714174828482
0.5886287625418061,-1.6938307775466437,0.48375583185313503,-0.37347903953335687,0.6653583181544076,-1.7538505886709284,1.005903804693361
0.5953177257525084,-1.6729481087761588,0.4889484728574743,-0.31164673446838265,0.556148346022766,-0.6410997944238157,0.3681175854939697
0.6020066889632107,-1.6525220084657655,0.49674538444991656,-0.21398011097495642,0.38651829708270186,0.8728217821982258,-0.4894495054592846
0.6086956521739131,-1.6312026702393256,0.5113157215556,-0.11770834297943529,0.13940297648025277,1.2018272765018319,-0.6001574342982631
0.6153846153846154,-1.6089460071621098,0.5368576033043228,0.12124470031183565,-0.14522380695323883,1.0394214162227222,-0.27720485694642427
0.6220735785953178,-1.5877348774334485,0.586590102708203,0.629254923801339,-0.9172757827843095,0.16516552563495823,0.4543061802221851
0.6287625418060201,-1.5666794891147906,0.6995663865715831,3.0776303230536737,-5.17147651381663,-3.888809828138485,2.6301325497782724
0.6354515050167224,-1.5455812469445513,2.6141931453624365,5.086466219704378,-8.739461325424058,-7.130933526421623,4.17802556049793
0.6421404682274248,-1.52393600320725,4.641833806515671,-4.6987624562843315,8.137200982663613,-10.530232174348884,6.046887963126306
0.6488294314381271,-1.500062507055047,1.0844590667612408,-6.886815484638232,12.227317452265522,-19.835217671696757,10.272300241692665
0.6555183946488294,-1.472784883574737,0.6822713167966997,-1.772718675031104,3.1969622195626863,-13.507571246263659,7.068180429537983
0.6622073578595318,-1.4442888824949784,0.47550019244377945,-1.2766214109000826,2.3113090179822735,-10.867156231288925,5.987190942247804
0.6688963210702341,-1.4159553017420636,0.277485534831537,-1.694711864806207,2.9376458403106347,-9.20854596009219,5.195086600620619
0.6755852842809364,-1.3877951473835615,-0.26309738854293385,-5.13653447226421,8.897824999366584,-8.008673943003906,4.567284217057687
0.6822742474916388,-1.3603381082289696,-1.597562189010893,2.266888533461263,-3.925271834188278,2.0671613153171884,-1.2509960156943822
0.6889632107023411,-1.3336942362165682,-0.022564756235417885,2.015621944175481,-3.488885581527323,5.964059538678553,-3.493579200982177
0.6956521739130435,-1.30442301528789,-0.10478383622043351,0.5221496720028511,-0.9009574607037097,7.404475307585546,-4.315598486519321
0.7023411371237458,-1.272601595287049,-0.2061583414485428,1.264511361706575,-2.1852127028306163,7.274180607554403,-4.235222479812537
0.7090301003344481,-1.2431682547678078,-0.4784609457003448,4.601451872184569,-7.963516937299925,6.52271464489661,-3.8039395838698407
0.7157190635451505,-1.217095635422764,-1.5904637858807857,4.321579516114478,-7.479569439590682,2.2934841384669276,-1.3587401411062292
0.7224080267558528,-1.1921219416130737,-1.074351150719218,-22.244424836278725,38.53540278592823,-2.6487908717436923,1.504373480860676
0.7290969899665551,-1.1661373964023312,0.05867444167779495,-5.997818163338926,10.39620323363835,-5.9008667705987605,3.387559943564983
0.7357859531772575,-1.1397191865128729,0.1979840138770777,-1.780334164229301,3.0916879174111203,-5.943262826639186,3.4150051887553814
0.7424749163879598,-1.113579761347336,0.2664508677695879,-0.769008447801796,1.3403247401072775,-5.36459200574187,3.083591760829129
0.7491638795986622,-1.0880819367892505,0.3152615291845487,-0.38827148853096727,0.68110190749764,-4.51818397242182,2.5972313771188476
0.7558528428093646,-1.0639757223137607,0.3535587197592989,-0.17604284049368363,0.31367038978936274,-3.4830843404320024,2.0015141472418247
0.7625418060200669,-1.0416772216122525,0.38083493621466574,0.01019616439787523,-0.008772027332138489,-2.3833466265970555,1.3681365846791524
0.7692307692307693,-1.01719503018482,0.3969252058297686,0.09699189247258858,-0.1589952601814416,-1.6338741539277368,0.9368882234687324
0.7759197324414716,-0.991785648399873,0.4081601170084195,0.12515971783756177,-0.20769027937860576,-1.1557250648645652,0.6621295772866939
0.782608695652174,-0.9657923293303677,0.41665342715263376,0.1290570394803118,-0.2143641547608072,-0.8413703994449437,0.4817741659590219
0.7892976588628763,-0.9393043379709479,0.4232660787547695,0.122491323804814,-0.2029307497506233,-0.6358488518503587,0.36408877346742347
0.7959866220735786,-0.9124319284231031,0.42903854478814674,0.1122608509763316,-0.1851614023085286,-0.4941588081068046,0.2831200659758926
0.802675585284281,-0.8852693554864057,0.4341869965516042,0.10083943537782893,-0.1653394032687046,-0.391220853209768,0.22441719836879112
0.8093645484949833,-0.8578167078407262,0.4386306126243351,0.08905653630428113,-0.14490476477588618,-0.3172304581728148,0.1823275931069315
0.8160535117056856,-0.8301233294294623,0.44298131932814583,0.07727640733305612,-0.12449045309798058,-0.26222576846729045,0.15112167911643237
0.822742474916388,-0.8022437797409204,0.44716731240942187,0.06558060132968074,-0.1042402302241252,-0.21960996263320998,0.1270093375241654
0.8294314381270903,-0.7741778285895563,0.45119515927828985,0.05396758410716887,-0.0841576857059355,-0.1874920393727256,0.10890210293011018
0.8361204013377926,-0.7459601280328707,0.4551632841697162,0.042374461916607306,-0.0641381129340449,-0.16195212553025193,0.09455545396461987
0.842809364548495,-0.7175967522304424,0.4591458611047088,0.030756570395060953,-0.044110038417332666,-0.1415679797156026,0.08315708546739994
0.8494983277591973,-0.6891533493266592,0.4630841534808986,0.01910609077532573,-0.024065004951354916,-0.12545182485891582,0.07420704415307994
0.8561872909698997,-0.6606220008966078,0.4670676668967285,0.00741387678207255,-0.003987124931250743,-0.11218754529487285,0.06690536330835865
0.862876254180602,-0.6320566354346653,0.47145912207315477,-0.004256941900282369,0.01599451041527155,-0.10164150166163602,0.061199069933662954
0.8695652173913043,-0.6034647823623543,0.4760642300486954,-0.015794754191668533,0.03566357692567655,-0.09307452801327099,0.056691334545776545
0.8762541806020067,-0.5748426863690143,0.48098635028782144,-0.026934151025301986,0.05419336722836432,-0.08658346271664427,0.05345385172100714
0.882943143812709,-0.5462938286701486,0.4861566088510484,-0.03677084835196311,0.057152167071102884,-0.08986764935050498,0.05381253254943566
0.8896321070234113,-0.5178176845466951,0.49201322524614166,-0.04063153084079445,0.10911336738456753,-0.06561990885763354,0.050772000609461285
0.8963210702341137,-0.4894947234825493,0.4989374644510937,-0.07029456407203381,0.11776549537628689,-0.0681190075747635,0.0405997202117999
0.903010033444816,-0.46134741099904714,0.5067001574078861,-0.08058365510796611,0.13446449338672575,-0.06469707800673591,0.038877217789599544
0.9096989966555183,-0.4334435710465286,0.5158130464515973,-0.08953962049916424,0.14857776759037464,-0.061952791586626615,0.03756625135755092
0.9163879598662207,-0.4059193881318119,0.5267631650762135,-0.09651055158995037,0.1587287896650197,-0.059942001422896095,0.03672892374484242
0.9230769230769231,-0.37884696986605676,0.5398494486568771,-0.10135023162666305,0.16419915456627984,-0.05883384646323475,0.03651441620815137
0.9297658862876255,-0.3524392341478683,0.5560265076429971,-0.10243236000468642,0.16297082017682768,-0.059060036169162645,0.036823937159798016
0.9364548494983278,-0.32698906447546766,0.5762860320965824,-0.08082483439795103,0.13999281305658884,-0.05167863673719756,0.02983668737241865
0.9431438127090301,-0.30287254273834385,0.6009458149282195,-0.06545183054581716,0.11336607496898243,-0.05120117640755499,0.02956107872298275
0.9498327759197325,-0.2808802335412875,0.630731918180841,-0.04397499066640399,0.07616681497188357,-0.052785060907553714,0.03047551828454815
0.9565217391304348,-0.2631547725967492,0.6637067310570115,-0.023300358292224287,0.04035748469047665,-0.05918629526929276,0.0341712390814338
