# n,energy,berry,bcd_x,bcd_y,qmd_x,qmd_y
0.00000016666666666666665,-3.2133591566523205,-0.000000031722058884542024,0,0,0,0
0.006688963210702341,-3.1657410421516654,-0.001280944468952738,-0.0000000000000000006346967582579861,-0.0000000000000000025028860023373046,0.00000000000000000047896126379779,0.0000000000000000008101160849547445
0.013377926421404682,-3.119009776618118,-0.0025520054130999253,0.0000000000000000031111575828907025,0.0000000000000000012582630458169567,-0.0000000000000000031529619376253084,0.0000000000000000013580483912596411
0.020066889632107024,-3.073046884602805,-0.0037795304373204677,0.0000000000000000043634173787464815,0.000000000000000005741109522529719,0.0000000000000000027912184263992252,-0.0000000000000000011275181431058124
0.026755852842809364,-3.0279907086821494,-0.004932203484852899,0.0000000000000000061339591991623706,0.0000000000000000013960776507053995,0.0000000000000000007618167701398061,0.0000000000000000023862051797250903
0.033444816053511704,-2.9837497636991217,-0.005982701233626143,0.000000000000000009011070264740708,0.000000000000000006806059307497278,0.000000000000000004363993936329801,-0.0000000000000000031125830063295827
0.04013377926421405,-2.940320085651992,-0.006905040599786088,0.000000000000000014307384676495065,-0.000000000000000014237856367679495,0.00000000000000001828676417052821,0.000000000000000006081824115870078
0.046822742474916385,-2.89772015448059,-0.0076789408342890515,-0.0000010597859166535498,0.0000016533162954302021,0.000009104641141317967,-0.000007701953033308949
0.05351170568561873,-2.8559636687059187,-0.008293306338244771,0.000019385742518768887,0.000015712108244410544,0.0001285251686998024,-0.00007537853173963936
0.06020066889632107,-2.8160843764574914,-0.008698762867258073,0.00007380862800336785,0.00001568063861020279,0.00017907829903599185,-0.00006674138999628105
0.06688963210702341,-2.7940473660578227,-0.008232046601360635,0.00011152202065993563,0.000017564829058151676,0.00021392659291496222,-0.00006503514534434713
0.07357859531772576,-2.7724161193660914,-0.0077069158996864295,0.00015696001266087331,0.000020361874515517985,0.00024999754402142704,-0.00006298807516578392
0.0802675585284281,-2.751020038405859,-0.0071418062592760135,0.00021204145205931473,0.000024028331884177612,0.0002836552065478326,-0.00005959553431411403
0.08695652173913043,-2.7298237562204353,-0.006552560422219412,0.00027900136751772445,0.000028636239562086143,0.00030915289348633904,-0.00005432879299956953
0.09364548494983277,-2.708858035064992,-0.005950446440548569,0.00035974017419618156,0.00003430512845888917,0.00031663871042498674,-0.00004703178260252753
0.10033444816053512,-2.6880806111102236,-0.005377653107544908,0.000456701739353338,0.000041226779822424925,0.00029094752152512474,-0.00003837354391407295
0.10702341137123746,-2.6675524972533036,-0.0048522199345466584,0.0005718126804270746,0.00004962718910198516,0.0002092740826980947,-0.00003045953792276055
0.11371237458193979,-2.647229701673555,-0.004422815637695529,0.0007072990302206379,0.00005987321067630239,0.00003757144410419962,-0.00002767708616476856
0.12040133779264214,-2.62716202735873,-0.004196894772770171,0.0008642893707997198,0.00007236918809972397,-0.0002717622134583942,-0.00003806634423952927
0.12709030100334448,-2.6073437092048706,-0.004236916273656318,0.0010447095844951855,0.0000878563033206945,-0.0008035869108222979,-0.00007812079380749932
0.13377926421404682,-2.587758631200264,-0.004733463483975901,0.0012465639964977903,0.00010702992158733251,-0.0016540427953921433,-0.00017208176701941877
0.14046822742474915,-2.568425642496036,-0.005926917923510062,0.0014659147428384438,0.0001307707498403683,-0.002954369526145132,-0.00035737906739200523
0.14715719063545152,-2.5493779843131206,-0.00814401947202476,0.0016953524072266504,0.00016005472500777194,-0.004864623948678342,-0.0006869806023223648
0.15384615384615385,-2.5306400575466,-0.011961086419676643,0.0019239375882934492,0.00019581297647933182,-0.007564483431219268,-0.0012300802839161642
0.1605351170568562,-2.512243575691762,-0.01818750773725641,0.002137240532867524,0.0002387324225655208,-0.011228808766054367,-0.00206781215836431
0.16722408026755853,-2.4942690876331164,-0.028344161504719956,0.0023157287601575345,0.00029546980949518413,-0.015974887725103134,-0.003347492806584706
0.17391304347826086,-2.4768424934364277,-0.04493128860668426,0.0024421127376984286,0.0003676899893094265,-0.021819249574246257,-0.005108527471185076
0.1806020066889632,-2.46010894576481,-0.07114257172207933,0.0025067085741540865,0.000444287805638606,-0.02869848585411901,-0.007179950805770866
0.18729096989966554,-2.4452080676767403,-0.12491215687696033,0.0024832717064469743,0.0005176048122420273,-0.036180818217298516,-0.009708157836386023
0.1939799331103679,-2.4287259730709256,-0.16737829514826397,0.002390366358251409,0.0005991945448025954,-0.04523600415416799,-0.01299522876947921
0.20066889632107024,-2.4103245858449247,-0.19602076980170544,0.002194820568556727,0.0006866437654131076,-0.05612606707866335,-0.017290740289586163
0.20735785953177258,-2.3904199967548427,-0.21460628363641754,0.001882492175720187,0.0007679685806266361,-0.06819119301095673,-0.02253671958763033
0.2140468227424749,-2.3693048101696386,-0.22588869303672277,0.0014731397929759204,0.0008280983833080013,-0.08032230388441806,-0.02843872990348899
0.22073578595317725,-2.3471527213670274,-0.231080759416035,0.0010143394490813534,0.000854248575372136,-0.09137740450805486,-0.034562913250220276
0.22742474916387959,-2.3243852561899145,-0.2264057594431721,0.000567464838865361,0.0008414333471007729,-0.10055579230186855,-0.040448547862479714
0.23411371237458195,-2.3047929256084987,-0.17827491093410963,0.00023006691506921733,0.0008034150594506148,-0.10689459583496637,-0.04511340898140595
0.2408026755852843,-2.288336127551787,-0.09923082403021416,0.0003538342122683892,0.00045557131095162,-0.11609729958827689,-0.04967713908487708
0.24749163879598662,-2.272141560164278,-0.029254009107940515,0.0016686434728865713,-0.0008430560860560424,-0.13929234357256826,-0.056760754288559506
0.25418060200668896,-2.256301611172079,0.03349428771338449,0.0008938609110786733,-0.0007185900985644532,-0.15336808310587527,-0.06409342029551952
0.2608695652173913,-2.2407416313814346,0.09302443021223375,0.000291404362085608,-0.0005784440921081575,-0.1670057200541154,-0.07164934955578667
0.26755852842809363,-2.225462441609699,0.15030139879618373,-0.0001007581749796085,-0.00046931047958978685,-0.1805097008153957,-0.07937734003589747
0.27424749163879597,-2.2105255034352793,0.2060372134991117,-0.00037740795785651086,-0.00034863003756156253,-0.1935805736870857,-0.0872336689951847
0.2809364548494983,-2.1961029179106237,0.2618562253364127,-0.0005600593540074968,-0.00021580373291926874,-0.20616842065404145,-0.09514942681429539
0.28762541806020064,-2.1820110745463115,0.31859711283780523,-0.0006932569790097893,-0.00007740296259779023,-0.21854716117962553,-0.10310532486154182
0.29431438127090304,-2.168285694531011,0.37666288877252907,-0.0007754999087739948,0.00006639310731730146,-0.23072967657308655,-0.11110637140458617
0.3010033444816054,-2.1553300914379756,0.4394561892978936,-0.0007943501167596355,0.00021233993066803353,-0.24273418075530534,-0.11911814451778527
0.3076923076923077,-2.142834710784941,0.5059425063670163,-0.0007902174547255521,0.00035667886966584046,-0.2546987897043546,-0.1271020984030277
0.31438127090301005,-2.13139371667463,0.5814639541874856,-0.0007433159606288966,0.0004954164008541186,-0.2666160875897756,-0.1349996316731014
0.3210702341137124,-2.1219169615776874,0.6817922805766465,-0.0006903254158595527,0.0006121203671379684,-0.27720619886002384,-0.14188500913465596
0.3277591973244147,-2.115117421581276,0.815931843505329,-0.0006290356273129112,0.000698793063154193,-0.28598738360799975,-0.14739084021910678
0.33444816053511706,-2.1083178815848647,0.9500714064340114,-0.0005677458387662695,0.0007854657591704177,-0.29476856835597565,-0.1528966713035576
0.3411371237458194,-2.1006368708720995,1.075231856322361,-0.00048070415474908484,0.000883781600001287,-0.3067495115501628,-0.1598380496062112
0.34782608695652173,-2.091278386199344,1.1833046956644746,-0.0003446555856808453,0.0010042548101883953,-0.32481972279624877,-0.16951133156963802
0.35451505016722407,-2.081797034377398,1.2901384675778442,-0.00019600425936043523,0.0011233182973043507,-0.34567442681474464,-0.17953246484116217
0.3612040133779264,-2.071296372441433,1.386692893299928,0.00005719997647443909,0.0012306866731244567,-0.38962937906085043,-0.19243938458085966
0.36789297658862874,-2.0608170023699866,1.4832892968436617,0.00043201812969267234,0.0012719656460286972,-0.476370712071189,-0.16701749998403778
0.3745819397993311,-2.0505031271505927,1.5802119805671935,0.0017521023608198345,0.0007995528307743919,-0.895676896236125,0.15632192008622067
0.38127090301003347,-2.040022822818886,1.675316955678803,0.0028713099889510806,0.00042763072679114514,-1.205630940956525,0.41952949933630956
0.3879598662207358,-2.0277347814935394,1.7506781548622745,0.0018086152963573462,0.0011472290530796154,-0.32781257579044465,0.02959081327615093
0.39464882943143814,-2.01523325503546,1.8193710164682724,0.0008240526856442278,0.00155482289547261,0.1261056856723107,-0.18549511690236878
0.4013377926421405,-2.002384445445068,1.8772162788452975,-0.000033409954301172025,0.0014548690080725486,-0.109547986599517,-0.11614244482824893
0.4080267558528428,-1.9885542515808559,1.952593456779125,-0.0006637414570668551,0.0007066920206111376,-0.11651669868097665,-0.06742812898024764
0.41471571906354515,-1.9739333310948017,2.0375935136182632,-0.0011833848137360273,-0.00015751195541370384,-0.06251502220415305,-0.034913306245702776
0.4214046822742475,-1.9580681229692525,2.1328015442956474,-0.0016080971456538216,-0.0007590982861321997,-0.047672649338164744,-0.027419499264913057
0.4280936454849498,-1.9407628616585675,2.2351397666749073,-0.0020641084703369645,-0.0012048188215902336,-0.04338246914319681,-0.02673922965671183
0.43478260869565216,-1.9223142327621883,2.3433005509071534,-0.002598055278069253,-0.0015485585171186107,-0.04211824132120453,-0.028174686504004755
0.4414715719063545,-1.9025337447010482,2.458133576842824,-0.0032556004401480126,-0.0017784166787793228,-0.04251572914622761,-0.03091285296534818
0.44816053511705684,-1.8812948977787523,2.581386325142831,-0.0040896447769745705,-0.0018684304022960176,-0.04376009319880607,-0.03445003178398927
0.45484949832775917,-1.8587694075425978,2.709618358581235,-0.0051489075818333535,-0.001777059449803716,-0.04549619499515326,-0.03849768717596092
0.46153846153846156,-1.8404253320612627,2.7737461207748906,-0.0061771731348166355,-0.0015378731904655322,-0.04719094747491321,-0.041943733652718536
0.4682274247491639,-1.8235871520300388,2.819991690246728,-0.007267674289921472,-0.001180054641233018,-0.04905969067245629,-0.0452368195639102
0.47491638795986624,-1.806526973912162,2.87504654707542,-0.008932967945793584,-0.0004985750257641811,-0.048297188947765454,-0.045176482870331894
0.4816053511705686,-1.789302914785412,2.9382022945579043,-0.011950045341893681,0.0008464078312658264,-0.0390716236782758,-0.03492804522099525
0.4882943143812709,-1.7718302011697273,3.0110858311620534,-0.01324347942855985,0.0013858557327420403,-0.04015027046560102,-0.03710777961314986
0.49498327759197325,-1.7539854576865612,3.092771636914332,-0.015229617445146513,0.002190340432151309,-0.04660096262354418,-0.04482527754337936
0.5016722408026756,-1.7359952101388896,3.1831188418502445,-0.01766247262915008,0.0039849962256788525,-0.053884307789551056,-0.05285488337194001
0.5083612040133779,-1.7181831796861369,3.282168359058984,-0.020655438955976897,0.006949304672386953,-0.057615221405519765,-0.05826836818757714
0.5150501672240803,-1.7007057486814576,3.3895292242821204,-0.025090590316732372,0.011414332599309497,-0.05651297215342436,-0.06118079376703479
0.5217391304347826,-1.6835390917439566,3.5050018595208416,-0.03747593940623262,0.021113888707572345,-0.05228046418270211,-0.06756160555604813
0.5284280936454849,-1.6667493642959834,3.6316902046915365,-0.10218897502126506,0.06272330155379925,-0.04841313447847177,-0.11232888658270836
0.5351170568561873,-1.650373054078631,3.771440597151727,-0.03777012517462146,0.027380306702756305,-0.035062805710231376,-0.05568138467944381
0.5418060200668896,-1.6343700798921699,3.923875064974559,-0.00014988281624297477,0.006932537170430898,-0.02885011260683707,-0.024558932486237434
0.5484949832775919,-1.6187372447167263,4.090064771729052,-0.00028092396187320606,0.008135648206569264,-0.029082965517999954,-0.026267657581401857
0.5551839464882943,-1.60354918387654,4.274688007617971,-0.0004957454877394356,0.009308345405413043,-0.028453062109244937,-0.027291725322717
0.5618729096989966,-1.588988109837933,4.484411280425576,-0.0007803226517570897,0.010406376467861687,-0.02695077973318818,-0.027537922752369905
0.568561872909699,-1.5747448961451873,4.681593619344907,-0.001097634040726617,0.011445786812761349,-0.0249015353217203,-0.027281420938791708
0.5752508361204013,-1.5608091550110215,4.8552996938997515,-0.001445429182649395,0.012419166841707713,-0.022276191593967463,-0.026489997202402325
0.5819397993311036,-1.5468702520609348,4.713222540496988,-0.0018231344161926811,0.013279390971857218,-0.018522450160577922,-0.0247258461859138
0.5886287625418061,-1.5349441776362933,4.514587035422073,-0.002150064666345375,0.013957679238959332,-0.0146629642369841,-0.022709760156810758
0.5953177257525084,-1.5259166277093965,4.278569804136521,-0.0023997163504970035,0.014389800184243616,-0.010808636736914633,-0.020466630676033076
0.6020066889632107,-1.516743131186531,4.043119945811017,-0.002652879705223853,0.014810990261343525,-0.006506227606360727,-0.017926401511054686
0.6086956521739131,-1.5061113156202202,3.8133393584053388,-0.0029411321693619567,0.01512295755644675,0.002273476595143831,-0.012417510251594313
0.6153846153846154,-1.4951661375296774,3.5842137834320016,-0.003242060507357292,0.015397412238552866,0.01390645965867854,-0.005077171643443968
0.6220735785953178,-1.4819654467999015,3.359802839934207,-0.0036342269210235976,0.015401859608990051,0.04607669921879457,0.015445511130417394
0.6287625418060201,-1.4685963689713613,3.1080164255231635,-0.004086246423557244,0.015134477254663613,0.046788686544681865,0.03010751565574212
0.6354515050167224,-1.4550816187622988,2.8325473771982796,-0.004590045082575528,0.014631933873194398,0.020286008829979385,0.03969942301683049
0.6421404682274248,-1.4393242037327258,2.5192039768259327,-0.04626850013507943,0.03704082183488941,-47.91724588071427,84.80531360114766
0.6488294314381271,-1.4229914257699015,2.1916768508917093,-0.0313338621951738,0.028170608074993483,-30.362217562990423,54.19061033163078
0.6555183946488294,-1.4065710502503737,1.8252762662759239,-0.00449235907913162,0.012780747536095646,0.40066779986067635,0.1014908681427194
0.6622073578595318,-1.39052937686562,1.402119131412166,-0.0036258637054750313,0.011836592880143963,0.2847721846184992,0.12266565961165385
0.6688963210702341,-1.3752792868072343,0.8994242640297329,-0.002829774492138564,0.010971632857361423,0.254254991596218,0.11446807365583041
0.6755852842809364,-1.3587000060947496,0.5495570588196899,-0.0018035448043557882,0.009959200773241694,0.23327260624599305,0.10668576256905365
0.6822742474916388,-1.341160007264774,0.28826539306670207,-0.000518973174074208,0.008806288805183573,0.21828717904946912,0.09954220101570997
0.6889632107023411,-1.3229075073841001,0.06721618673828414,0.0010761042492836784,0.007513297903564922,0.20638976293275219,0.09299690344954219
0.6956521739130435,-1.3040403766772362,-0.13510452125381137,0.003057389890787906,0.006077060956172006,0.19583563503449747,0.0866581629302576
0.7023411371237458,-1.2846335671366675,-0.32978372742852713,0.005546657745442677,0.004485685792504996,0.18557260042416257,0.08016988372563365
0.7090301003344481,-1.264710562739831,-0.5269829077389101,0.008785576167316202,0.002688283159514856,0.17499117643094203,0.07325989215369173
0.7157190635451505,-1.2443411616590454,-0.7375840697890037,0.013357050347480033,0.0005227545365267675,0.16360778674610374,0.06555012129660986
0.7224080267558528,-1.2234201479659919,-0.9692350645928317,0.024832819722316452,-0.004864086954642801,0.15452798951947572,0.05530440568555015
0.7290969899665551,-1.2020846683784212,-1.2339475063064254,0.08716085855993554,-0.03770079625045673,0.17997360152135086,0.0303637065118308
0.7357859531772575,-1.1803028659156458,-1.5510357570444273,0.00623270072289491,0.010199630834813274,0.10085845239933637,0.046601976290935564
0.7424749163879598,-1.1576791555601,-1.9115574169149987,0.007818190279017,0.009601400978468663,0.09673066756361887,0.04368771583439512
0.7491638795986622,-1.1305919734199,-2.0537152870516127,0.009848432590404467,0.008877551872533623,0.09083292322520499,0.03980822086702762
0.7558528428093646,-1.0998633318961857,-1.8934173594861514,0.01225114325619607,0.008020972865624901,0.0826105337616067,0.03489375784542786
0.7625418060200669,-1.0704928105140206,-1.7159168518028365,0.014503651111264693,0.0071357657823811,0.07273594416148145,0.029700890181087507
0.7692307692307693,-1.0423541019636526,-1.5195646481930276,0.016446792111043003,0.006236851534336202,0.06191881064001019,0.02458229164149561
0.7759197324414716,-1.0155901479180711,-1.2988440040872336,0.017941519177958158,0.005354794921588475,0.05089210441162495,0.01986947810486429
0.782608695652174,-0.9908210725799615,-1.0320755146218543,0.018826320674473592,0.004545085302040216,0.040694276912702484,0.01598722944752161
0.7892976588628763,-0.9686508473003774,-0.6864784434051686,0.019209764159590918,0.0038498278427109628,0.0320945147902825,0.013025139589244865
0.7959866220735786,-0.9485022116035234,-0.29318007366916593,0.019221736022671937,0.0032554834408594405,0.024998389355715935,0.010816616716446646
0.802675585284281,-0.9258965927232048,-0.08928865044329745,0.018868220487226955,0.002642791686101535,0.0181281549305961,0.008930185507402781
0.8093645484949833,-0.9020432113081377,0.03251308841752947,0.018165942933137634,0.0020571499289555213,0.012195532644777756,0.007546093249366344
0.8160535117056856,-0.8774197786462185,0.1129032729840445,0.017200403623784378,0.001508909424283798,0.007424498029249796,0.006660472959506388
0.822742474916388,-0.8521743329436164,0.16883695553757047,0.016080683548257826,0.0009870588476045988,0.003785094792847196,0.006197741877400727
0.8294314381270903,-0.826442925329545,0.20987535028327833,0.014927586048012696,0.00047180248921816165,0.0011520403020094346,0.006073211267410851
0.8361204013377926,-0.8001142943593801,0.24010453729356343,0.013882329491405995,-0.00007860285915509555,-0.0006037345786297501,0.006241784442652055
0.842809364548495,-0.7734424932698191,0.2647651471936473,0.013070262813532168,-0.0007083393061173202,-0.0018139156335728842,0.006632362169809401
0.8494983277591973,-0.7463869583036161,0.2858479351979903,0.01263505536482798,-0.0014952937623135478,-0.0026680339678623877,0.007280065450269306
0.8561872909698997,-0.7189481365197274,0.3043593302530714,0.012938168618915091,-0.0026388091609007417,-0.003338249869466241,0.008405413980895123
0.862876254180602,-0.6911306109941397,0.3216389482398303,0.015120624500462497,-0.004794321199834574,-0.0041425661928292355,0.010833593742955103
0.8695652173913043,-0.6630622229865806,0.33867241822286376,0.027721882793310733,-0.012910666106508414,-0.006796536854561285,0.02075936991401385
0.8762541806020067,-0.6346810146531567,0.35620713704215645,0.0002622950458375494,0.002300073971862202,-0.0013915942538909206,0.0020359201160149044
0.882943143812709,-0.6060259585568764,0.3745085555401447,-0.0005510643295863705,0.0024066653769916073,-0.0013945989620047046,0.002026087062430844
0.8896321070234113,-0.577116337258547,0.39439671807908594,-0.001294717644058782,0.0025189801234090856,-0.0014065781971278441,0.0020446683686815804
0.8963210702341137,-0.5480468161790971,0.41684647993548507,-0.0019873074957256244,0.0026407639579164328,-0.0014468059444721758,0.0021063213361229324
