# n,energy,berry,bcd_x,bcd_y,qmd_x,qmd_y
0.00000022222222222222222,-3.0999999999999996,0,0,0,0,0
0.006666666666666667,-3.052010018451536,-0.000003969796277829487,0.000000000000000000007807069330498835,-0.000000000000000000010656068816631704,-0.00000000000000000000393221364296972,-0.000000000000000000003652604605440158
0.013333333333333334,-3.0046493680801984,-0.00002946652406045503,0.0000000000000000001206721262428745,-0.000000000000000000032865593008749096,0.000000000000000000028713791537179144,-0.0000000000000000000027973987190380423
0.02,-2.9580556576551453,-0.00009923396334435394,0.00000000000000000034142747303545576,0.00000000000000000021240662625269026,-0.00000000000000000003444957702372238,0.0000000000000000002016162944113218
0.02666666666666667,-2.912549144226365,-0.00024036392258623045,0.00000000000000000036935378935222455,0.0000000000000000014257343136441903,0.0000000000000000003781652287898369,-0.00000000000000000013163423124152903
0.03333333333333333,-2.882823655086055,-0.00038408037291284163,0.0000000000000000017549416697152004,-0.0000000000000000008608257896708522,-0.0000000000000000002305223271102318,-0.0000000000000000004175417181974089
0.04,-2.859598317645462,-0.000529832645047117,-0.00000000000000000038317513731362995,0.0000000000000000010868420260865518,0.0000000000000000014549166705986467,0.000000000000000000024036688105527424
0.04666666666666667,-2.8365429388665957,-0.0007081477446915872,0.00000000000000000023756868474629407,0.00000000000000000010536227918456941,0.00000000000000000017700895510968242,-0.0000000000000000021139004351935487
0.05333333333333334,-2.8136761715812746,-0.0009225056455771841,0.0000000000000000017690721392057814,0.00000000000000000008703896534111882,0.0000000000000000007510387122556591,-0.000000000000000000605397356874169
0.06,-2.790955781561045,-0.0011725505021185306,0.0000000000000000014750061478818868,0.000000000000000005491085509000112,0.0000000000000000006223007958911741,0.0000000000000000011214533193438725
0.06666666666666667,-2.7683824562965675,-0.001461267671801745,0.0000000000000000019431138448888265,0.0000000000000000020982699592866505,-0.0000000000000000016408697814251073,-0.0000000000000000006833296897199404
0.07333333333333333,-2.746006987099586,-0.0017906412864634388,0.000000000000000005883209622034792,0.000000000000000004699793208250971,-0.0000000000000000033087890741065703,-0.000000000000000001234485637264069
0.08,-2.7237768682548062,-0.002164533812697801,0.0000000000000000030077194384894618,0.000000000000000002949417412550057,0.0000000000000000033381447713986202,-0.000000000000000003070658784572163
0.08666666666666667,-2.7017321848610707,-0.00258399673199784,0.000000000000000003120638267399685,0.000000000000000008623951026845349,0.00000000000000000024071975531614884,0.0000000000000000024822763104299177
0.09333333333333334,-2.6798039712531376,-0.003051736734468509,0.0000000000000000066655273919619,0.000000000000000002777397998513185,-0.000000000000000002388954875522904,-0.000000000000000009663820058794794
0.1,-2.658089942453505,-0.0035753568875689697,-0.000000000000000009068506585676274,0.00000000000000000007512814428003163,0.00000000000000001213251875346573,-0.000000000000000003527243068573857
0.10666666666666667,-2.6365256849075,-0.004153133587550945,0.00000000000000001337275041633336,-0.000000000000000012342465282025077,0.000000000000000014128825480170758,-0.0000000000000000019389526634816326
0.11333333333333333,-2.6150660336519693,-0.004793431655132815,-0.000000000000000014605778201686124,0.00000000000000005148211669373897,-0.000000000000000003345561093252685,0.0000000000000000014278067202967867
0.12,-2.593788597284493,-0.00550122281894006,0.000000000000000018370530022842047,0.000000000000000009857179890822858,-0.000000000000000006130058649396312,-0.000000000000000005386316997320644
0.12666666666666668,-2.572710236003766,-0.006276700583430879,-0.000000000000000005717013938134199,-0.0000000000000000895947839271612,0.000000000000000011863013322203233,-0.000000000000000004454189968724938
0.13333333333333333,-2.5517762634419365,-0.007120583126053334,-0.000000000000000013112037657566047,0.000000000000000033625947126699914,0.000000000000000043624901429066797,-0.000000000000000027605206095405092
0.14,-2.530949863412356,-0.008051926335193006,-0.000000000000000025484726521384628,-0.0000000000000000012240914298194306,0.00000000000000003193071058194964,0.000000000000000010005136568934626
0.14666666666666667,-2.510334314799273,-0.009060770567370258,0.000000000000000001852042470949979,-0.000000000000000006405829068713132,0.000000000000000009415422511721922,0.00000000000000000818779127625161
0.15333333333333332,-2.4898692888563376,-0.010162974933028184,-0.0000000000000000469168897451158,-0.00000000000000001551068994614786,0.000000000000000007194570509568473,-0.000000000000000015748007558939793
0.16,-2.4695839017883756,-0.011355844357200237,-0.000000000000000024141167490347833,-0.000000000000000025360114385328733,-0.000000000000000001603588120996795,-0.00000000000000001685299499578709
0.16666666666666666,-2.449385131282926,-0.012651759021716816,0.00000000000000004428515336951109,0.00000000000000003107721398581227,0.000000000000000010661140356644183,-0.00000000000000003021125618494678
0.17333333333333334,-2.4293613191007326,-0.014058020286960302,-0.0000000000000000058329706990332435,-0.000000000000000051611674100922897,0.000000000000000042362503811042715,-0.000000000000000032187585083272394
0.18,-2.4095136610036767,-0.015573343501482166,-0.00000000000000002353318617243982,-0.00000000000000018982892537008238,-0.00000000000000002309853271124643,0.0000000000000000027063947761223084
0.18666666666666668,-2.3897979314318656,-0.01721488457682037,-0.00000000000000007225950469064777,-0.000000000000000033865409464799534,0.000000000000000018581113733700295,-0.000000000000000010895364730536489
0.19333333333333333,-2.3702890791899347,-0.018990911914136627,-0.000000000000000051948399816266354,-0.00000000000000008415593514966167,0.00000000000000006564973174711697,-0.000000000000000005057764757246012
0.2,-2.350857734310832,-0.020900551904363785,0.000000000000000021212083535394814,0.00000000000000015085325564397223,0.000000000000000027490660171910167,0.000000000000000030187097212683604
0.20666666666666667,-2.33160887590855,-0.022977300022434144,0.0000000000000001141109033795377,0.00000000000000017070111748704946,0.00000000000000003518861593659325,0.000000000000000041735571959019126
0.21333333333333335,-2.312524166270094,-0.02520009252373801,0.00000000000000019031665343661457,0.0000000000000001053350198318983,-0.00000000000000007715971460373215,0.00000000000000006404002581957589
0.22,-2.293574502410244,-0.027606861888709023,-0.000000000000000028989411904210544,0.00000000000000023244943928595773,-0.0000000000000002325172198033681,0.0000000000000000562141550394883
0.22666666666666666,-2.2747664125642832,-0.030217394095522543,-0.00000000000000017905662579512223,0.00000000000000009489265601543664,-0.00000000000000016032543879791725,0.00000000000000006924734883080797
0.23333333333333334,-2.2561871108022182,-0.0330126351835642,-0.00000000000000017017678700154507,0.00000000000000012267262152680237,-0.00000000000000006932699059131583,-0.000000000000000032014373805024395
0.24,-2.2377140762543344,-0.036041808428843955,0.00000000000000004058826164354698,-0.00000000000000005270753331390211,0.00000000000000002775561256932742,0.00000000000000011059034555773092
0.24666666666666667,-2.2193916746939117,-0.039290705210483945,0.000000000000000013983061931860057,0.00000000000000009729992742158623,0.00000000000000019870449831908782,0.00000000000000013294430333271786
0.25333333333333335,-2.2012436270969604,-0.042780863979908254,-0.00000000000000009736051853589443,0.00000000000000018526588173714666,0.0000000000000001231383433802491,-0.00000000000000009205570777583833
0.26,-2.183236222995195,-0.04654396168581914,-0.00047252056575771377,0.00000000000000010065097976036276,-0.000000000000000028773404954483786,-0.00016872588696789458
0.26666666666666666,-2.1653482690427373,-0.05059863971068089,-0.0010198981895715657,-0.00000000000000011323044072359986,-0.00000000000000012503094312749745,-0.0003669355964984684
0.2733333333333333,-2.1476193756400273,-0.054953684453965264,-0.0005476868693212887,-0.000000000000000437095935520629,-0.00000000000000038367449987552303,-0.00020620846494613383
0.28,-2.1301209670732315,-0.05961557363508961,-0.00045984543786862755,0.0000000000000003268475494869442,-0.000000000000000185423282897506,-0.0001792963578412774
0.2866666666666667,-2.1127917756029952,-0.0646996273667181,-0.00042382904927144323,0.0000000000000006358321440782856,-0.000000000000000025209479371540218,-0.00016995847589714138
0.29333333333333333,-2.095522678212401,-0.07015487053726663,-0.00040417452323602686,-0.00000000000000011583575179132158,-0.00000000000000034697195564642575,-0.00016604571624214762
0.3,-2.0784819336529536,-0.07606400615232692,-0.00039306457454672567,-0.00000000000000007454883359539668,-0.00000000000000021481018883697216,-0.00016482711454091382
0.30666666666666664,-2.0616037961314833,-0.08242158398326074,-0.00038714848510876303,0.0000000000000006342466597173288,-0.0000000000000001266995677180489,-0.00016518869905035886
0.31333333333333335,-2.0448692418636405,-0.0892428425827989,-0.00038477743092781014,0.0000000000000008157927615866828,-0.00000000000000011196976619232696,-0.0001665928878090877
0.32,-2.0283231195245044,-0.09657161662138507,-0.0003848874947941301,-0.0000000000000006628508960225025,0.0000000000000003500881272875197,-0.00016868045274056318
0.32666666666666666,-2.011847805656489,-0.10459993836111253,-0.00038672040005484554,-0.0000000000000006320763330114751,0.0000000000000004908816148621303,-0.0001711535921215855
0.3333333333333333,-1.9956823975161067,-0.11326327872247634,-0.00038988348602807504,-0.00000000000000006203533697522356,0.0000000000000004758343000373844,-0.00017389749575878958
0.34,-1.9796692497580493,-0.12262047030579994,-0.0003940111535433254,0.0000000000000007302953471446571,0.00000000000000007111177981908324,-0.00017682854091640064
0.3466666666666667,-1.9638127849551836,-0.13270237957156564,-0.00039884733634469144,0.0000000000000008311798085698333,-0.0000000000000002390035306246816,-0.00017985399082490872
0.35333333333333333,-1.9481427591523102,-0.14351100272804704,-0.0004041533193519578,-0.00000000000000052076297232665,0.00000000000000008219580735419918,-0.00018288456846322245
0.36,-1.9325970430877935,-0.15553001326316754,-0.00041018257746361066,0.00000000000000010143166117244763,-0.00000000000000036198824410534793,-0.0001859894128318977
0.36666666666666664,-1.917272313080731,-0.16856573828593616,-0.00041653026206001163,-0.0000000000000004148036022217105,-0.00000000000000059307595711950685,-0.00018905015207756784
0.37333333333333335,-1.902171264315892,-0.18258068684184015,-0.0004231688712725062,-0.00000000000000028845909316906224,-0.0000000000000006588627884803287,-0.00019207926526812713
0.38,-1.8872847839031104,-0.19759559463774148,-0.0004300777303037901,0.000000000000001103839630467191,-0.0000000000000005524229110837799,-0.00019507963703391297
0.38666666666666666,-1.872555413514799,-0.2144575055025239,-0.0004372675774817952,0.0000000000000005791647752623994,0.00000000000000017985440043996267,-0.00019799734081953096
0.3933333333333333,-1.8580333715224935,-0.2328146713305533,0.013547236151326738,0.0000000000000011693540251275644,0.00000000000000035014752711758354,-0.005958350956613886
0.4,-1.8437121425835064,-0.25258804079954883,0.026173431929635647,0.0000000000000019260466071165016,0.00000000000000007619176767120526,-0.011443196119859398
0.4066666666666667,-1.8296523822525306,-0.2741710994113502,0.021090201125680733,0.0000000000000019230839967523927,-0.0000000000000006692066609774335,-0.010312835299174185
0.41333333333333333,-1.8158754998129345,-0.29847585312006075,0.019451903027868655,-0.00000000000000015702876576434383,-0.0000000000000004612656690689348,-0.009852178890972068
0.42,-1.8022619209042483,-0.3248369945089806,0.01837435868233681,-0.0000000000000013712369201334624,-0.00000000000000019817293323377045,-0.009416105044870261
0.4266666666666667,-1.7888323160768684,-0.35372890069864693,0.017298440629165697,-0.0000000000000006987294846765046,-0.00000000000000009145962424653028,-0.008847975927102417
0.43333333333333335,-1.775803931803786,-0.38694207506356343,0.016015876997959394,-0.00000000000000030317014713884797,-0.00000000000000016759511055563055,-0.008133172373083855
0.44,-1.7630062708713474,-0.42280177376211453,0.014632387859884138,-0.0000000000000004621902767813882,-0.00000000000000018273311669546519,-0.007368074172416393
0.44666666666666666,-1.7505729520636064,-0.4629145622548597,0.013097713141261449,-0.0000000000000016777459153864456,-0.000000000000000025568690311613768,-0.006539125974355043
0.4533333333333333,-1.7384834043718518,-0.509160822827456,0.011435362750247048,-0.0000000000000014909266491823009,0.00000000000000012387047377484487,-0.00567935219060388
0.46,-1.7265480972121319,-0.5581541407908255,0.009718618010156417,-0.0000000000000007209561614938208,0.000000000000000269236627282387,-0.0048070139773366775
0.4666666666666667,-1.7153240435582588,-0.6195055360819851,0.007935068293199371,-0.00000000000000019435615949893662,0.0000000000000003571777881842274,-0.003957356491855786
0.47333333333333333,-1.7043014684999034,-0.6852465615848158,0.006171381816628873,0.0000000000000004609070546126186,0.00000000000000024986470022235605,-0.0031280091482200037
0.48,-1.6940139437994737,-0.7670021877948053,0.00448016200540415,0.0000000000000015855697097683513,-0.000000000000000569790585406843,-0.0023727588916441747
0.4866666666666667,-1.684196382191638,-0.8603825532624371,0.0029008495795699906,0.0000000000000028970574684861446,-0.000000000000001113825026210119,-0.0016759072607593194
0.49333333333333335,-1.6757735437467058,-0.9882619961275302,0.0016536479619330535,0.000000000000004762991530448046,-0.0000000000000008398914552359924,-0.0011523669328608313
0.5,-1.6673507053017738,-1.1161414389926234,0.00040644634429611633,0.000000000000006628925592409945,-0.0000000000000005659578842618659,-0.0006288266049623435
0.5066666666666667,-1.6597864319062863,-1.261550957349991,-0.000027222000878364877,0.000000000000004529941461493165,-0.0000000000000006655253007305273,-0.0004532753678005132
0.5133333333333333,-1.6523685466990967,-1.409949411715988,-0.0003221802250750382,0.0000000000000017549256293325561,-0.00000000000000082877587424659305,-0.0003370574246893777
0.52,-1.6444319597664565,-1.5459456843461548,-0.0005793678719167945,-0.0000000000000007721948774589275,-0.0000000000000009273707465485862,-0.00023634187617470993
0.5266666666666666,-1.633078553121857,-1.600245642992634,-0.0005877511541186257,-0.0000000000000016663660558322852,-0.0000000000000006000621302765438,-0.00023774452939490204
0.5333333333333333,-1.6215022953624765,-1.6476513877224375,-0.0005963716897907067,-0.000000000000002827724057505813,0.00000000000000033424424488150975,-0.00023913659691919147
0.54,-1.6095175824437096,-1.6824209953301739,-0.0006054270781405543,-0.000000000000004478798418032608,0.000000000000002381093254598355,-0.00024050926233229377
0.5466666666666666,-1.5973794006152162,-1.7075808073485235,-0.0006147381596325448,-0.000000000000001964881859401403,0.000000000000001648783670116399,-0.00024182388653811308
0.5533333333333333,-1.585162718860517,-1.7277738398914855,-0.0006241811353375774,0.0000000000000025136467939625007,-0.000000000000000443132381683261,-0.00024310817328335415
0.56,-1.5727971544841923,-1.735155398243189,-0.0006339473469002995,-0.00000000000000023574373537357443,-0.0000000000000010211229364234433,-0.00024429203255810824
0.5666666666666667,-1.5604554307502572,-1.737303975897588,-0.0006437747092585564,-0.0000000000000020107527230298586,-0.0000000000000013027970734730149,-0.00024542771341519323
0.5733333333333334,-1.5481523910064778,-1.730961483115526,-0.0006537012953178291,-0.0000000000000022047235259568664,-0.0000000000000011036661551195416,-0.0002464852196407235
0.58,-1.5360089648681043,-1.7129167473737161,-0.0006636512988460188,-0.0000000000000007807827923230359,-0.0000000000000008291620924221008,-0.0002474392421429781
0.5866666666666667,-1.5239567293137382,-1.6893891575017683,-0.0006735945554380957,0.0000000000000009331998682895873,-0.00000000000000042643714230313977,-0.00024834608998346646
0.5933333333333334,-1.5123774392848328,-1.6474172421266058,-0.0006833356467221775,-0.000000000000001117357090150309,0.0000000000000013486478591332595,-0.0002491075168361087
0.6,-1.5011090201216992,-1.5960220164136372,-0.0006928720879759322,-0.0000000000000022560788680348903,0.000000000000002108960467347767,-0.00024981141833162353
0.6066666666666667,-1.4904865502398277,-1.525046375775911,-0.0007019832930478654,-0.0000000000000015001255754582087,0.0000000000000007607078472948809,-0.000250395789606773
0.6133333333333333,-1.4807905485755648,-1.4275896049066996,-0.0007103605514548826,-0.0000000000000005378177992791168,0.000000000000000339832156848264,-0.00025089064246185415
0.62,-1.4723546923769792,-1.2941142469418851,-0.0007177395246058437,0.000000000000000705165192618853,0.0000000000000011803379262366785,-0.0002512637358987494
0.6266666666666667,-1.4639130580236634,-1.160320416644513,-0.0007251278684078688,0.0000000000000018729503323667907,0.0000000000000019851688989744655,-0.0002516342447423554
0.6333333333333333,-1.4552826511607642,-1.0161220845195071,-0.000732822351695669,0.000000000000000584019110459386,0.0000000000000016245030639648418,-0.00025192031483618017
0.64,-1.4466522442978647,-0.8719237523944989,-0.0007405168349834693,-0.0000000000000007049121114480404,0.0000000000000012638372289552123,-0.00025220638493000496
0.6466666666666666,-1.4349950078927372,-0.7912901599822523,-0.0007510629480834952,-0.0000000000000008098787790941476,0.0000000000000004529788964960703,-0.00025249144642581193
0.6533333333333333,-1.421809902387141,-0.7411541492520236,-0.0007630762567992896,-0.00000000000000043949613993350435,-0.00000000000000007606943428741048,-0.0002527570013764347
0.66,-1.4075927677589015,-0.7028086490159106,-0.0007762345987745095,-0.00000000000000042629184737173076,0.0000000000000024087084247693784,-0.00025290401128713526
0.6666666666666666,-1.3927486805460734,-0.6703754389891439,-0.0007901519549033446,0.0000000000000018116337276688185,0.000000000000001856273773706469,-0.000252928245272544
0.6733333333333333,-1.377387516282609,-0.6423124482827487,-0.0008047263422059845,0.0000000000000020468820802482635,0.00000000000000038137895421383635,-0.00025283253899616403
0.68,-1.3615036985259772,-0.6179630128574392,-0.0008199914575307482,-0.000000000000001816872816333135,-0.0000000000000007640957847919323,-0.0002525975602157871
0.6866666666666666,-1.3449119800414113,-0.5968597072920271,-0.0008361777707444202,-0.0000000000000003756196737188213,-0.000000000000002904753746528497,-0.00025216747881864627
0.6933333333333334,-1.3277957447028672,-0.5784509779866731,-0.0008531402893788206,-0.0000000000000004809013509193304,-0.0000000000000006607786055143617,-0.00025153678613874434
0.7,-1.3102368653155503,-0.5619325119125724,-0.0008707769868685243,0.0000000000000009809055672500721,0.0000000000000011261651545979419,-0.00025070290554742063
0.7066666666666667,-1.292220453797215,-0.5471878829683469,-0.0008891355308982474,0.00000000000000032994887431375883,0.0000000000000001047797809667476,-0.00024964873857176293
0.7133333333333334,-1.2737451504811832,-0.5340852496973476,-0.0009082344899717147,-0.00000000000000022050033956359157,-0.0000000000000015506145985031951,-0.00024835172750975606
0.72,-1.2548074221972427,-0.5223654662542255,-0.0009280916146610988,-0.000000000000000014260796781180687,-0.0000000000000013210724049374273,-0.0002467880375552138
0.7266666666666667,-1.2354110696701008,-0.5118819726524426,-0.000948736076694989,-0.000000000000000032233355594762784,0.00000000000000021281092340590729,-0.00024493971736590703
