# n,energy,berry,bcd_x,bcd_y,qmd_x,qmd_y
0.0000015,-3.2499956135107584,0,0,0,0,0
0.006688963210702341,-3.201660707524245,-0.00000000000000000000003824090940167659,0.000000000000000000000607822225413169,0.000000000000000000000022702980484475373,-0.0000000000000000000007610755167934954,-0.0000000000000000000035047988580492166
0.013377926421404682,-3.1537450187125136,-0.0000000000000000000002497779141052555,0.00000000000000000000010342980831546175,-0.00000000000000000000005546240709871063,0.0000000000000000000009638303482127596,-0.000000000000000000007879582635414084
0.020066889632107024,-3.1061210811477196,-0.0000000000000000000005423966559897603,-0.0000000000000000000053686104223273935,-0.0000000000000000000000011694995145262359,0.000000000000000000020935158447060753,0.000000000000000000027819026628272165
0.026755852842809364,-3.0589689291947275,-0.0000000000000000000012122343481648801,0.0000000000000000000002143205020504188,-0.0000000000000000000007421773236899128,-0.00000000000000000003910203026792248,-0.0000000000000000000026337041718379425
0.033444816053511704,-3.0122341609757224,0.0000000000000000000005251761611205035,-0.00000000000000000002983180199385889,0.0000000000000000000002764627842218507,-0.00000000000000000005324161108464875,0.00000000000000000025375922589042916
0.04013377926421405,-2.965904492528735,0.0000000000000000000012112251969894014,0.000000000000000000018602632864017913,-0.000000000000000000000016129165771976603,-0.000000000000000000020710131071611565,-0.00000000000000000017540645364137788
0.046822742474916385,-2.919965390402217,0.0000000000000000000011288031264666778,0.000000000000000000021708108793761974,-0.000000000000000000002405785012234868,0.00000000000000000049825019623464815,-0.00000000000000000006668043664190174
0.05351170568561873,-2.8744150877911334,0.0000000000000000000015669526729887432,0.00000000000000000004940357081372875,-0.00000000000000000000037403232097732533,0.0000000000000000004722762987125686,0.0000000000000000014774769693700436
0.06020066889632107,-2.8291631678650364,-0.0000000000000000000015333220083097023,-0.00000000000000000023305609549986523,0.0000000000000000000002829780210669945,-0.0000000000000000023068944123675186,0.00000000000000000140763819676835
0.06688963210702341,-2.7844265889289117,-0.0000000000000000000013105461172662468,-0.0000000000000000000059027406356715,-0.000000000000000000000001370284729656172,0.0000000000000000025768586921366068,0.0000000000000000006963182365204539
0.07357859531772576,-2.7460123789644473,-0.000000000000000000008112648624230199,0.0000000000000000002262501389109289,0.00000000000000000000011218103148009257,0.000000000000000003732696850909988,-0.000000000000000002257724498092845
0.0802675585284281,-2.721681478827306,-0.000000000000000000006722703284279043,-0.00000000000000000005023295043276677,0.0000000000000000000009214667368677315,-0.000000000000000003705546989521516,-0.0000000000000000016251484018801276
0.08695652173913043,-2.6987315078332523,-0.000000000000000000007606638320188528,0.00000000000000000009896635267477894,-0.00000000000000000000012749213738108402,0.0000000000000000012144071511440603,0.000000000000000002468877409160386
0.09364548494983277,-2.675818187081656,-0.000000000000000000012035239394642503,-0.00000000000000000017731309529731983,-0.0000000000000000000031324740294085925,-0.0000000000000000026069553769632784,-0.0000000000000000013408578753008723
0.10033444816053512,-2.653005139349203,-0.000000000000000000013348585018934778,-0.00000000000000000041869929929947373,0.0000000000000000000008223092177751172,0.000000000000000005690841127233214,0.0000000000000000033123879305495513
0.10702341137123746,-2.6303566825855063,-0.000000000000000000012474287721006908,-0.0000000000000000006503945689909766,0.0000000000000000000012493531239155612,-0.000000000000000007150937922361032,-0.000000000000000004400142855737655
0.11371237458193979,-2.6077905517414126,-0.000000000000000000012985383379296308,0.00000000000000000010462393054502489,-0.0000000000000000000054670509006100176,-0.000000000000000003708715955170952,-0.000000000000000004262470509500474
0.12040133779264214,-2.5853033090136783,-0.000000000000000000013665324419962174,0.00000000000000000009439762464991453,-0.000000000000000000016520355620842372,-0.000000000000000015622666023975893,-0.000000000000000007870540566824761
0.12709030100334448,-2.5629300375400406,-0.000000000000000000015560877107751846,0.00000000000000000036427638184717677,-0.000000000000000000002141291119429639,-0.000000000000000008460774369918137,-0.0000000000000000030934826460160834
0.13377926421404682,-2.5406124803251044,-0.000000000000000000019083431885136554,0.00000000000000000004922327377301494,-0.0000000000000000000024913422439077176,-0.0000000000000000050335594335045874,0.000000000000000006882562543954693
0.14046822742474915,-2.5184269528480265,-0.000000000000000000019062669225399593,-0.00000000000000000021406631608943138,-0.00000000000000000000229654425496839,0.000000000000000012490244953196677,0.0000000000000000014757326221633966
0.14715719063545152,-2.496364299091613,-0.000000000000000000018332313614269757,0.00000000000000000021138382762107852,0.0000000000000000000025347307501508698,0.00000000000000000938989565142439,-0.00000000000000000900386915925891
0.15384615384615385,-2.474405098769108,-0.000000000000000000016075357578038104,0.0000000000000000008782068658968573,0.0000000000000000000032110822298377447,0.000000000000000010576468506143283,-0.000000000000000014136350956755738
0.1605351170568562,-2.452552297782417,-0.000000000000000000015524964248799597,0.00000000000000000010440524816135545,0.000000000000000000004718806893522841,-0.00000000000000001467395790920407,-0.000000000000000015047255454335946
0.16722408026755853,-2.4307373242106163,-0.000000000000000000021807012224309818,0.00000000000000000011364285575963262,-0.000000000000000000002718401550905734,-0.000000000000000027221290588000563,-0.00000000000000000855880606854877
0.17391304347826086,-2.4090209643654665,-0.000000000000000000024447148577304775,0.0000000000000000003973173740199818,-0.0000000000000000000028852780012262166,-0.000000000000000027769791709381925,-0.000000000000000020586715655053288
0.1806020066889632,-2.387461037868906,-0.00000000000000000002386574273939118,0.0000000000000000008139838868946855,-0.000000000000000000001041599423934174,-0.000000000000000008948746019775835,-0.000000000000000018156187977147003
0.18729096989966554,-2.365987920877503,-0.000000000000000000010215300021925728,-0.000000000000000000049144666710096465,-0.000000000000000000011114120528381645,-0.000000000000000017093747901288927,0.000000000000000027180793336635552
0.1939799331103679,-2.3446105966143955,-0.000000000000000000008306138498719397,-0.0000000000000000001744951149873349,-0.000000000000000000004679127257561835,0.00000000000000001708266359969682,0.00000000000000002013324121986955
0.20066889632107024,-2.3233874626977054,-0.000000000000000000009454073765063923,0.000000000000000000761076653734832,0.000000000000000000001023306685811193,-0.0000000000000000023346024382484577,0.000000000000000011084202625304179
0.20735785953177258,-2.3022184081469637,-0.0000000000000000000032449694544232278,0.00000000000000000010931777794227647,0.000000000000000000003920083393297496,0.000000000000000007452860985160085,0.000000000000000010671770335923984
0.2140468227424749,-2.2811511305057346,-0.000000000000000000005798158884978114,0.00000000000000000020259031006120008,-0.0000000000000000000009622244500075465,-0.00000000000000006864064367455555,0.000000000000000010821343883164318
0.22073578595317725,-2.260244226256167,-0.000000000000000000006795453461632566,0.0000000000000000005784853758216961,0.000000000000000000009709261296012619,-0.000000000000000019461360799937993,0.0000000000000000007821868311132531
0.22742474916387959,-2.2393652701592663,-0.00000000000000000000517212632979614,0.0000000000000000009282699838307515,0.0000000000000000000054197967350323144,0.000000000000000020855391491515898,-0.0010378727260517964
0.23411371237458195,-2.2186875893226237,0.000000000000000000012207580344585024,0.0000000000000000010626734702551762,0.00000000000000000008245663114734037,0.00000000000000006008018554773664,-0.000988776886670436
0.2408026755852843,-2.1980737858321358,0.000000000000000000011849637366036145,-0.00000000000000000011832085981349523,0.00000000000000000004228734950279096,0.00000000000000003456323858037471,-0.0006592252823792619
0.24749163879598662,-2.17753014503027,-0.0000000000000000000005968917515442715,-0.0000000000000000001861285648682663,-0.000000000000000000015813876721725787,-0.000000000000000015982601246587347,-0.0005003070325613073
0.25418060200668896,-2.157085563626226,-0.000000000000000000011123898598931273,-0.0000000000000000003770750360933336,-0.000000000000000000012000726501797603,-0.000000000000000020622178609115136,-0.0003961292010433475
0.2608695652173913,-2.136744868688032,-0.000000000000000000018524624150516237,0.0000000000000000011462726996316372,0.000000000000000000014605246141497306,0.00000000000000002756760428312525,-0.000318781120389655
0.26755852842809363,-2.1165222858278274,-0.00000000000000000002709126739437606,0.0000000000000000026410524420229184,0.00000000000000000002288578551449868,0.00000000000000006009603645498719,-0.000257274196391161
0.27424749163879597,-2.0964354440749626,-0.00000000000000000003987400628202378,0.0000000000000000017612728871074587,-0.00000000000000000001011404538464466,0.00000000000000004602545359976236,-0.00020609627931002055
0.2809364548494983,-2.07646587871172,-0.000000000000000000043448096274661765,0.0000000000000000008469891821222488,-0.000000000000000000045480773887699916,0.000000000000000025676036560376822,-0.0001619768842105376
0.28762541806020064,-2.1132798206693093,-0.0000000000000000016354707476299648,-0.000000000000002789437895230212,-0.00000000000000237369605230737,-0.010758450618545322,-0.009007061928813278
0.29431438127090304,-2.093729395063546,0.00000000000000010838916939549772,-0.00000000000000557983619795428,-0.00000000000000040114345494120325,-0.014044609427119204,-0.010562431918493636
0.3010033444816054,-2.0721712236772314,0.00000000000000013705142801018987,-0.000000000000007477454431189797,0.0000000000000013449868373342238,-0.019647132201513064,-0.012858074945619807
0.3076923076923077,-2.049718633529815,0.0000000000000004098855536909686,-0.000000000000018430304554435346,0.000000000000002773653974719201,-0.029090256469059175,-0.014732438502069234
0.31438127090301005,-2.0315544241513526,0.0000000000000006084227966469369,-0.000000000000024758382063829757,0.0000000000000004505158861418312,-0.0441194305219188,-0.017267130199416073
0.3210702341137124,-2.010443633276836,0.0000000000000006191614969159697,-0.00000000000007413667908173486,-0.000000000000013629279923892372,-0.08198502403873391,-0.020391240221448066
0.3277591973244147,-1.986390032571671,0.0000000000000007746673884595044,-0.00000000000025134030093684146,-0.0000000000001063282887940398,-0.2728008032457697,0.041092550472841945
0.33444816053511706,-1.95976123116274,0.00000000000001409528047015481,-0.0000000000035646838764924595,0.0000000000007727811958326125,-0.3346517281434145,0.18671464926887904
0.3411371237458194,-1.9334295737186946,0.00000000000000747373170350333,-0.000000000000022293985365873392,0.0000000000013799711109430537,0.9229333004153707,-0.3319175756451604
0.34782608695652173,-1.9104650486214731,0.0000000000000006876876927493407,0.0000000000005978893025801324,0.0000000000003486033886014249,0.22184323971516073,0.059009743669269366
0.35451505016722407,-1.885664062133176,0.0000000000000006775938635651701,0.00000000000009909520292750694,0.00000000000006789186963227084,0.5089122013929254,0.891126252441798
0.3612040133779264,-1.8537971483622147,0.0000000000000005587511143133276,0.000000000000026892416910041454,0.000000000000015848515538576976,0.028760160248959353,0.0741238658221654
0.36789297658862874,-1.8281783126317204,0.0000000000000005492645411210773,0.000000000000004733250285100258,0.0000000000000012705646112017837,-0.0006348302243490422,0.03873970198282439
0.3745819397993311,-1.8075485123131263,0.0000000000000005423047777054062,-0.0000000000000004588622750654893,-0.0000000000000021185490719880883,-0.014710092329189024,0.030307492764635215
0.38127090301003347,-1.7857752814664616,0.0000000000000004826533347769329,-0.0000000000000006363747606358168,-0.000000000000003064805556713135,-0.029253523794802713,0.03397351405527578
0.3879598662207358,-1.7633860033956452,0.0000000000000004884937335098641,-0.00000000000000030726290278931543,-0.000000000000004015571492101968,-0.031425672743550605,0.02954364016693892
0.39464882943143814,-1.7420693258955102,0.0000000000000005411755035759994,0.00000000000000042653281230198993,-0.000000000000003255394779154028,-0.019301837724596305,0.015328152019986038
0.4013377926421405,-1.7229718717683495,0.0000000000000004762873728221838,0.0000000000000015551996586426993,-0.000000000000003976926570796326,-0.011490141260620418,0.007748797357955057
0.4080267558528428,-1.7040888843538067,0.0000000000000005896198555548807,0.0000000000000020715728150053526,-0.0000000000000031867518922460594,-0.007460229711836777,0.004232324987894986
0.41471571906354515,-1.6854555377887488,0.00000000000000018000863681240654,0.0000000000000023733347118422803,-0.0000000000000028377737669780266,-0.0052727126746699455,0.002558665755321457
0.4214046822742475,-1.6672464513123444,0.0000000000000005611701773915467,0.0000000000000013264850391318971,-0.000000000000002462582537588545,-0.004032888643133486,0.0016782662119416798
0.4280936454849498,-1.6501572615849551,0.0000000000000004575508113818689,0.00000000000000037616249577974377,-0.0000000000000029944304296387798,-0.019245981964408177,0.013328413360177385
0.43478260869565216,-1.6325530060733595,0.0000000000000006133705465932082,-0.000000000000006218386553923252,-0.0000000000000068652796788470035,-0.009346543835200685,0.0236930490827891
0.4414715719063545,-1.6145725022318296,0.0000000000000011058977788019557,-0.000000000000021257232994377415,-0.000000000000015533881007983872,0.11814093133392763,0.2425722511108899
0.44816053511705684,-1.5974350061220315,0.0000000000000015484893725397321,-0.000000000000056138230274468524,-0.000000000000037026237471787683,0.13728012823377514,0.2665264861911475
0.45484949832775917,-1.5811918277508523,0.000000000000001537954011503562,-0.00000000000013804598272361916,-0.00000000000008190477368255843,0.06828690224802672,0.08586847719648823
0.46153846153846156,-1.5649997039779262,0.0000000000000008043707030954292,-0.00000000000035127627461408366,-0.00000000000018749088575594696,0.18170835752526418,0.1009493345761594
0.4682274247491639,-1.5491286895855974,-0.0000000000000003998224919143765,-0.0000000000019311653206592404,-0.0000000000010210247734578665,0.5782993110817769,-0.18989255456494722
0.47491638795986624,-1.533309721323506,-0.000000000000046074120326405843,0.000000000021837878501456884,0.00000000001770573768281249,0.36244440141682477,0.07605674381049593
0.4816053511705686,-1.5171060705105737,-0.00000000000004686824713077056,0.000000000023300823079913337,0.00000000001854401611421378,-0.33843291109772444,0.4559167204350957
0.4882943143812709,-1.5005150512890006,-0.0000000000000010662899548886845,0.0000000000005621865933310388,0.00000000000029246870761860665,-0.8958800554284088,0.5906655390103868
0.49498327759197325,-1.484044955438254,0.00000000000000004318021164820739,0.00000000000015079913937606217,0.00000000000010508365473835487,-0.23420661394409353,0.24171329992197688
0.5016722408026756,-1.4677253943208792,-0.00000000000000017899881233680762,0.00000000000007175349346616576,0.000000000000029451501560507564,-0.16403199791514855,0.05269363639430233
0.5083612040133779,-1.4515713114643642,-0.0000000000000024638912514977294,0.00000000000003903176861501298,0.000000000000012632175457355453,-0.1059282285128069,0.010406853885193067
0.5150501672240803,-1.435546334021368,-0.000000000000003976073226616741,0.00000000000002667509916387159,0.000000000000010172387264044141,-0.06844768946919903,0.005210140255624319
0.5217391304347826,-1.4196406100783532,-0.0000000000000045196120820601825,0.000000000000019514192972026282,0.000000000000008166062260567792,-0.04852935812503717,0.00197037601071611
0.5284280936454849,-1.4038535777709646,-0.000000000000005227362383878928,0.0000000000000068180304900329365,0.000000000000007115289872876923,-0.03654250151767777,0.0006468206292424236
0.5351170568561873,-1.38828251110195,-0.000000000000004311099702417652,0.000000000000008362210505369372,0.000000000000003321494264187476,-0.029294278969456442,0.0010363241611694544
0.5418060200668896,-1.3728453080140781,-0.000000000000003561196339808437,0.000000000000008110061271634581,0.000000000000004755084001869424,-0.023643539848489957,0.002379696539721918
0.5484949832775919,-1.3575396451413368,-0.0000000000000030008796282619825,0.000000000000007560518389668031,0.000000000000004413417300710761,-0.019110456887191537,0.0045893651526788285
0.5551839464882943,-1.3423672935004147,-0.0000000000000027202145185247887,0.000000000000007565550747070608,-0.0000000000000015283792799725827,-0.015312788325828382,0.00761932195995284
0.5618729096989966,-1.3274299713965192,-0.000000000000003799537862850637,0.000000000000005757677020187923,-0.0000000000000012858358169059451,-0.011976671156223497,0.012024346520428254
0.568561872909699,-1.3126294834496839,-0.000000000000003597550119439839,0.0000000000000035115978727198974,0.00000000000000018176819782771247,-0.008471243964683654,0.018198014051585325
0.5752508361204013,-1.297971682700308,-0.000000000000002186210505286547,0.0000000000000022491212512526475,0.000000000000001265131899950759,-0.004195335467203433,0.02711497982870452
0.5819397993311036,-1.3122749919976409,-0.0000000000000000001028328893611395,-0.0000000000000000026448584644596175,-0.00000000000000000033408977535368367,0.0000000000000002737205134863232,0.0009097808808526482
0.5886287625418061,-1.2997348724514144,-0.00000000000000000010968226168769452,0.0000000000000000066324991725121114,-0.0000000000000000003464720829750868,0.00000000000000016091889517078569,0.0009383744628132005
0.5953177257525084,-1.2876736555864743,-0.00000000000000000002158104803676517,-0.00000000000000000004882561752392138,-0.0000000000000000001859826143711409,-0.0000000000000014369166905433105,0.0009660195628858439
0.6020066889632107,-1.2760915043983363,-0.0000000000000000000009602741628233745,-0.000000000000000002777168433752304,-0.000000000000000000014988953290792408,-0.0000000000000018252233854987316,0.0009927096366578333
0.6086956521739131,-1.2651142685398606,-0.0000000000000000000655469247612919,-0.0000000000000000005140883415473082,0.00000000000000000016926833188617846,-0.0000000000000006862602234834772,0.0010181938005150227
0.6153846153846154,-1.2550799074293832,-0.00000000000000000008828891329162942,-0.000000000000000003562926518897896,0.000000000000000000185917497151845,-0.00000000000000014826279747456868,0.0010416314096649139
0.6220735785953178,-1.2459400036908788,-0.00000000000000000007133499677836399,-0.00000000000000001165091169388312,0.000000000000000000043565354157379376,-0.00000000000000018037103397824078,0.001063127556336385
0.6287625418060201,-1.2363923360808045,-0.00000000000000000005425695600617349,-0.000000000000000016979442442680257,-0.00000000000000000002207331740540847,-0.0000000000000002678068850429253,0.001085662041288831
0.6354515050167224,-1.225179128762663,-0.000000000000000000036671921121978316,-0.000000000000000011036790921882968,0.00000000000000000022562948564865253,-0.000000000000000581232200670172,0.0011124376906944016
0.6421404682274248,-1.2136454140618178,-0.00000000000000000001112497471036561,-0.000000000000000004080144716279646,0.000000000000000000388384454344502,0.0000000000000000052295501288790365,0.0011401387061145038
0.6488294314381271,-1.2013932461901917,0.00000000000000000003226948751850366,0.000000000000000005149484065602019,0.00000000000000000036071934462965587,0.000000000000002608888879233261,0.001169914033026794
