# n,energy,berry,bcd_x,bcd_y,qmd_x,qmd_y
0.00000016666666666666665,-3.056563402685421,0.000000007572265408468288,0,0,0,0
0.006688963210702341,-3.008541371096103,0.0003145678826948771,-0.00000000000000000019235299611104238,-0.00000000000000000016320229379288389,-0.0000000000000000011298421862376826,-0.00000000000000000017719608268494235
0.013377926421404682,-2.961558736067807,0.000659553744690817,-0.0000000000000000034336746933047737,0.000000000000000003145090793970516,-0.000000000000000002704609472815983,-0.000000000000000001172749458588919
0.020066889632107024,-2.935638772925869,0.0007072444037472602,-0.000000000000000002775596099186312,0.00000000000000000072878208512912345,0.0000000000000000006293223702172411,-0.000000000000000002227297382628941
0.026755852842809364,-2.912133938638884,0.0007350022098086303,0.0000000000000000009030386342499372,0.000000000000000003969829038094391,0.0000000000000000011589562172973372,-0.00000000000000000016417054020426552
0.033444816053511704,-2.888831743390799,0.0007782031098634693,0.0000000000000000009922351587436026,0.0000000000000000006940884946994544,0.000000000000000002011481774311565,-0.0000000000000000015890356690365973
0.04013377926421405,-2.865726480849273,0.0008381042216488417,0.00000000000000000009305830304730659,0.000000000000000010640923074506817,0.0000000000000000023350158775074984,-0.000000000000000004322602464198992
0.046822742474916385,-2.842787290038405,0.0009156867414607374,-0.00000000000000000004982014418720718,0.000000000000000009516745864901159,0.0000000000000000008488538928649708,-0.000000000000000000028738549869452366
0.05351170568561873,-2.8200680852113216,0.0010121606385301266,0.00000000000000000022919872753846246,0.0000000000000000014267669495386933,0.00000000000000000576993247062443,0.0000000000000000007543576291740211
0.06020066889632107,-2.7975571879811056,0.0011301085270556564,-0.000000000000000000012718144426111891,0.000000000000000019822906446948023,0.000000000000000008298843897461005,-0.0000000000000000030605611805561887
0.06688963210702341,-2.7752357421134515,0.001271686377449476,0.000000000000000008346770800754139,0.00000000000000000768967170996576,0.000000000000000009890652460060976,-0.000000000000000010170625326064273
0.07357859531772576,-2.753098564584973,0.0014369077092727602,0.000000000000000009992347925925302,0.0000000000000000155899788710806,0.000000000000000005648417678994268,-0.0000000000000000013982190729794032
0.0802675585284281,-2.731194248311952,0.001626388295845659,-0.000024393254617122855,0.000013380571051055639,0.000020732186013993556,-0.000025772125517081297
0.08695652173913043,-2.7094497704076637,0.0018427502485487037,-0.00006508888155391268,0.00003479220947252305,0.00006156540184219369,-0.00006507358631129149
0.09364548494983277,-2.687896686880346,0.002087837068830008,-0.00005579959174396905,0.000027644619005660506,0.00006689574514613608,-0.00004662612924230152
0.10033444816053512,-2.6665451315227897,0.0023628210233539353,-0.00005697739469501867,0.000026443657565155478,0.00007747550966165176,-0.000039654727458166246
0.10702341137123746,-2.6453892410910615,0.0026682835757462484,-0.00006143738858642363,0.00002682379843356385,0.00008928586172928642,-0.000035188716500285395
0.11371237458193979,-2.6244281470949415,0.003005913338652172,-0.000022168216402826738,0.0000008057148082477827,0.00013266660261183397,-0.00009898705286180581
0.12040133779264214,-2.6036490742135574,0.0033823182632064033,-0.00001981576885115434,-0.000004793298441480576,0.00013826203758423995,-0.00012570812381484193
0.12709030100334448,-2.583069379406505,0.0037959079115383256,-0.000034041303874735014,-0.0000018050709911938748,0.00012775843548840833,-0.0001322079202784941
0.13377926421404682,-2.56268876392249,0.004249728336842399,-0.000044714177323934744,-0.000002271369723038587,0.00011621291745571712,-0.00014395438072473208
0.14046822742474915,-2.542473473108845,0.004751165638674595,-0.00005502398277056698,-0.000004684423970780021,0.00009706072858337292,-0.00015796137129316445
0.14715719063545152,-2.5224789292397767,0.005300303564559469,-0.00006592855751917862,-0.000008854086279842153,0.00006510489208601846,-0.00017315640594096004
0.15384615384615385,-2.5026591171145114,0.005894575358523234,-0.00007787912135028261,-0.00001494071859784446,0.000013967499642230039,-0.00018894551612969022
0.1605351170568562,-2.4830600904256612,0.006551992485361856,-0.00009110658650036355,-0.00002323066311577495,-0.00006447682459948269,-0.00020465136602175279
0.16722408026755853,-2.463674291670322,0.007279563334134809,-0.00010579284667768733,-0.000034057532047051675,-0.00018103525758023185,-0.0002194015670869117
0.17391304347826086,-2.4444800650053184,0.008082424602821058,-0.00012202842047424068,-0.000047887451242982884,-0.00035023614137061495,-0.00023220648679521679
0.1806020066889632,-2.4254666598143007,0.008967603246102976,-0.00013981932457960742,-0.00006521971165801857,-0.0005912477541795162,-0.00024169409208060587
0.18729096989966554,-2.4066559779239314,0.009959502304688747,-0.0001590044814067024,-0.00008657070304312551,-0.0009286865158425733,-0.00024609923605303004
0.1939799331103679,-2.3880853195140537,0.011092932801804232,-0.00017924716251328617,-0.00011246781767104745,-0.0013933394860093666,-0.0002431316841670524
0.20066889632107024,-2.3697317084057707,0.01240100518469554,-0.00020003638953879064,-0.00014348188424376872,-0.002024903037508382,-0.0002297674209377079
0.20735785953177258,-2.351606119059957,0.013942259565976247,-0.00022057795331778532,-0.00018008812323868392,-0.002871243220703981,-0.00020201554534656716
0.2140468227424749,-2.333722170375857,0.01580998833352544,-0.00023979207601638688,-0.00022264839207013733,-0.003988590887945667,-0.00015459397627159136
0.22073578595317725,-2.3160668866716434,0.018154412204977276,-0.000256294971911405,-0.00027141604455020615,-0.005442857188838201,-0.00008037584183873364
0.22742474916387959,-2.2987126276662044,0.02122543385215052,-0.0002683371802832308,-0.0003261215871412806,-0.007295789345242063,0.000029314304014778064
0.23411371237458195,-2.281752833062921,0.025630711267164905,-0.0002727608459158274,-0.0003866997971630916,-0.009675218481173684,0.00019410289110412357
0.2408026755852843,-2.265275998391751,0.03294943055476778,-0.00026643120288327845,-0.00045119770811483074,-0.012648792761519576,0.0004371536108208466
0.24749163879598662,-2.2497758881548755,0.04892285811776018,-0.0002485237992456707,-0.0005148481702122987,-0.016074732110538694,0.0007664342967391419
0.25418060200668896,-2.234541053488219,0.0686992899897723,-0.00021770666679671042,-0.0005781448808523227,-0.020054076140663006,0.0012132569409962549
0.2608695652173913,-2.218884108942509,0.08716232793185551,-0.00016979348503800908,-0.0006416697000122399,-0.024817645296642637,0.0018385746452182713
0.26755852842809363,-2.2016455472500365,0.09152653783887542,-0.00008944076532417388,-0.0007026252727854419,-0.03100104093320513,0.00286434268726955
0.27424749163879597,-2.1841441238167913,0.08377713979626378,0.000024570420792035104,-0.0007433671227261195,-0.03804657454214724,0.004422560050551656
0.2809364548494983,-2.167172347999947,0.05999369838780741,0.00016480042759348318,-0.0007509463475581578,-0.04517397961573608,0.006571582350574259
0.28762541806020064,-2.147781313434852,0.037274071752441684,0.00035626167179051587,-0.0007063099295390508,-0.05298027486888765,0.009961264957519927
0.29431438127090304,-2.1288246542244007,0.0054897442649588825,0.000568377404004576,-0.0005873454158285537,-0.05923482831938412,0.014439532813273988
0.3010033444816054,-2.110516415495851,-0.026510086973873206,0.0007837049518958785,-0.0003884131862481793,-0.0628870141183873,0.019859645987863585
0.3076923076923077,-2.0915029761322654,-0.04919833139366344,0.0010033787186092833,-0.00009051140889117966,-0.06328780267844286,0.02637368489960639
0.31438127090301005,-2.0735867111961204,-0.056686846206741914,0.0015996064121085506,0.00010482473531328973,-0.07287377972426712,0.030031543480427924
0.3210702341137124,-2.0577284739039223,-0.05069445262466562,0.0023968157056363073,0.00023174033567485475,-0.09372872598392992,0.02914029746181747
0.3277591973244147,-2.0428895983561413,-0.043362354890826606,0.0022461405328987856,0.0008139244334317416,-0.10542969434300759,0.02665137678038979
0.33444816053511706,-2.0283653071437837,-0.03879379040444068,0.002084990119892968,0.0014571058077468124,-0.10332553588302239,0.03819121291576187
0.3411371237458194,-2.0140516269742283,-0.03572373742674172,0.002148026359130682,0.001878978974242964,-0.09936574633604893,0.048132236039601047
0.34782608695652173,-1.9999391357695282,-0.03392749154092941,0.002417213989400591,0.0020632977945078275,-0.0949524781874055,0.05454275723647728
0.35451505016722407,-1.9861751854836045,-0.03379910944056496,0.0024866236820037853,0.002180099854333146,-0.08481187317963183,0.06185991263991735
0.3612040133779264,-1.9726885665793852,-0.03490782186189217,0.0024676031279006997,0.002211770317297081,-0.07022216530090289,0.06994235984395349
0.36789297658862874,-1.9594226395993746,-0.03700748159474349,0.002381418350730368,0.0021703381251354896,-0.05190118360469763,0.0788503378282993
0.3745819397993311,-1.9465374943041356,-0.040842061703080156,0.0021917388104748005,0.001982068633245413,-0.026404800996461957,0.09001956330481145
0.38127090301003347,-1.9340045657470322,-0.04656994019576948,0.0019241892894808561,0.0016596040177094748,0.005967625929112614,0.10425264831172641
0.3879598662207358,-1.9217002935145255,-0.05352693304634587,0.001606087192007187,0.001250020987773179,0.04280392651863602,0.12047476672747444
0.39464882943143814,-1.910053579889557,-0.06528127541416359,0.0011830282265170903,0.0006562965686247829,0.09778894683842007,0.1466737132682247
0.4013377926421405,-1.8986711043804176,-0.07942083806190965,0.000879743648307204,0.00021253860331116515,0.16255893573963948,0.1776076639321635
0.4080267558528428,-1.8879570343777188,-0.09962995188661292,0.0008921809901530818,0.0001657555497844427,0.25227668486623955,0.22057620441599954
0.41471571906354515,-1.8786929601382616,-0.13899786687393495,0.0008988176434292723,0.0000883920907969459,0.31139632383254684,0.2481257906339684
0.4214046822742475,-1.8714427425716138,-0.2049748799996589,0.0008973978901427041,-0.00003144359821742395,0.3280191432330535,0.2542604425995527
0.4280936454849498,-1.8641925250049662,-0.27095189312538287,0.000895978136856136,-0.0001512792872317938,0.3446419626335601,0.260395094565137
0.43478260869565216,-1.8568199407494512,-0.3318129940976059,0.0008994552639141014,-0.0002801311854562918,0.3637667747839014,0.26757425614285474
0.4414715719063545,-1.8493876687268584,-0.3901786661599145,0.0009053209810051812,-0.0004133809913159695,0.38411200371486737,0.2752629064304241
0.44816053511705684,-1.8419553967042657,-0.44854433822222306,0.000911186698096261,-0.0005466307971756473,0.4044572326458333,0.2829515567179935
0.45484949832775917,-1.832973198057548,-0.46415350472843475,0.0009313914627436213,-0.0007160485907959448,0.4348798059479079,0.29518891338605857
0.46153846153846156,-1.823980000871978,-0.47945926391184995,0.0009516979796734455,-0.000885723038513548,0.4653738897730429,0.30745854843625875
0.4682274247491639,-1.8147463995057267,-0.4725417410975381,0.0009926495899772927,-0.0010569031627127698,0.5038702952753473,0.3242448488390744
0.47491638795986624,-1.8054445106226422,-0.45931162946216697,0.0010394654999672042,-0.0012285109787590815,0.5446397838608341,0.3423141213616834
0.4816053511705686,-1.7963617888171364,-0.4245699147033913,0.0011311008384608647,-0.001367144559202157,0.5923806834809566,0.36622336237675346
0.4882943143812709,-1.7874033716179916,-0.3776275017923515,0.001248156333480948,-0.0014870762003667498,0.6440755460503312,0.3934448480621303
0.49498327759197325,-1.7794310595544856,-0.2959395650199105,0.0014601159558824278,-0.0015021087118493434,0.684393007633586,0.4239860659654631
0.5016722408026756,-1.7728469251509222,-0.1653390343827589,0.00180567572364962,-0.001369470733534052,0.7086940696400238,0.45920059702315175
0.5083612040133779,-1.7662627907473587,-0.03473850374560733,0.002151235491416812,-0.001236832755218761,0.7329951316464616,0.49441512808084037
0.5150501672240803,-1.7587527426675846,0.061205890980459664,0.0034971104951614746,-0.0009671987614465037,-0.7589459716652891,4.85266088950998
0.5217391304347826,-1.7498006475694976,0.10317573198641364,0.006400907841426863,-0.00048420287370272604,-4.6123302091636,15.943731163633263
0.5284280936454849,-1.740561518646407,0.13953820999780447,0.008323093192919372,0.00033564534813439244,-7.199172818080344,22.854691950368796
0.5351170568561873,-1.7298873747216676,0.14786688392083128,0.005337745649014757,0.0028395743669231187,-3.4539873560768495,8.867349818074292
0.5418060200668896,-1.719003206435588,0.15835178298575678,0.0035758643101071975,0.005174129963982731,-0.8582303149718267,-0.8629450691968518
0.5484949832775919,-1.707631760442513,0.17383934191453998,0.004652547998382031,0.007115722135088427,-0.9292631725054381,-0.7164608681436436
0.5551839464882943,-1.6956568743820541,0.19654831344788865,0.0057417352145788325,0.008247649116256403,-0.9305754546143213,-0.6314454499806563
0.5618729096989966,-1.6831884683987277,0.22516327496140154,0.006841148367814209,0.008717396166584146,-0.8748671726843347,-0.5967019156888411
0.568561872909699,-1.6698759398629863,0.2550627822505707,0.007881374551093716,0.008816198216540238,-0.8194336780361582,-0.5724999745674595
0.5752508361204013,-1.656174948702661,0.28565136019815907,0.008955205921561607,0.008760590157267205,-0.7674687545946602,-0.5518316786983452
0.5819397993311036,-1.642030063818363,0.31700965627150834,0.010077756729887876,0.00852961485336144,-0.7197505880099474,-0.5348246586083382
0.5886287625418061,-1.627131434409315,0.34913990077523127,0.011317254784426602,0.007980975554950594,-0.6762423433779874,-0.5206578007934343
0.5953177257525084,-1.6117295511609742,0.3821561763781089,0.01258582800380342,0.007156685254757671,-0.6331851372737213,-0.5062689262938105
0.6020066889632107,-1.595819482702884,0.41614727910037014,0.013844362553844894,0.006007070107622511,-0.5897787143437245,-0.49072969040108927
0.6086956521739131,-1.5795461451508415,0.44443868181000706,0.014945287248486351,0.0045611417080330865,-0.5239462700004334,-0.46405596616457057
0.6153846153846154,-1.5633831631610893,0.4491838015498052,0.015576021284454832,0.0030416875349695968,-0.3792936692623156,-0.40196659119497913
0.6220735785953178,-1.5467885827568555,0.4497133571123611,0.014683453793706398,-0.00025376575452776447,-0.2718148605071695,-0.3472092568510362
0.6287625418060201,-1.5298394658738728,0.44815103989349386,0.013101775022881358,-0.003886331130285251,-0.181532158634434,-0.29755767164496383
0.6354515050167224,-1.5125296272673894,0.4442788495432831,0.01082538027384692,-0.007544107696458686,-0.10482928429030751,-0.25117538406749146
0.6421404682274248,-1.4948645439793695,0.43706514682698855,0.0078366972474804,-0.010972345752778325,-0.040316199365011546,-0.2075907050870714
0.6488294314381271,-1.4768399866586661,0.42504043290366583,0.004083429642065205,-0.013910188870247702,0.012055198819099673,-0.16767956695396607
0.6555183946488294,-1.458442065333898,0.40700629383660264,-0.001105269798723706,-0.015769208040737927,0.05267097869303288,-0.13389487464073702
0.6622073578595318,-1.4396835902420553,0.38095523354472455,-0.005620637469659731,-0.017594017633777357,0.081931280476728,-0.10363812100970213
0.6688963210702341,-1.4205820381760028,0.34044003545782253,0.0029484952621853873,-0.02595441642713208,0.09924975130688313,-0.0674735817946851
0.6755852842809364,-1.4011040704503854,0.27940250360905444,0.015801998111334183,-0.034502646698613956,0.10841331503777624,-0.06924263133496274
0.6822742474916388,-1.3812556710348471,0.1811868549732973,-0.005357667543978598,-0.021559878096369316,0.07065972191622628,-0.0321700470867865
0.6889632107023411,-1.3609237905763356,0.037273798651891135,-0.00576488524364772,-0.019249388064409383,0.07228551186933165,-0.02060230420117192
0.6956521739130435,-1.338803026074748,0.01817390330499538,-0.005960953325266257,-0.016666215816479403,0.06798583526417547,-0.011965701818385577
0.7023411371237458,-1.3147173365469234,0.38921148997530364,-0.005907440519804016,-0.013957031946129014,0.05955208287314942,-0.005916820854321618
0.7090301003344481,-1.2916664471572759,0.886080715251099,-0.005646702554978213,-0.011574794568361173,0.050130489990859436,-0.002363017513044782
0.7157190635451505,-1.2693851235732003,1.5138398890391895,-0.005254418381996251,-0.009519983859883337,0.04112450620367962,-0.00030668529316980105
0.7224080267558528,-1.2457708099277913,1.8202440761467835,-0.004745133538642741,-0.00761815887272815,0.03245170454489102,0.0009495074181449631
0.7290969899665551,-1.221410262690895,1.7957659213882047,-0.004167048991141096,-0.005969743373772619,0.024944620094832833,0.0016052923712588994
0.7357859531772575,-1.1977987596554287,1.6402028214797353,-0.0035992877495120866,-0.004628310370531633,0.019021163558675346,0.0019218479982166627
0.7424749163879598,-1.1759460328274158,1.3341181975583258,-0.0030877107125233502,-0.003576978334446457,0.014583311391634046,0.002065397125470071
0.7491638795986622,-1.1548087837265593,1.0301054114611992,-0.0026161957696103316,-0.002713407388111677,0.011131821489684487,0.0021276901414554387
0.7558528428093646,-1.132418068093376,0.9108154225803081,-0.002148150737422373,-0.001939301861708828,0.008230560432705791,0.0021524122850214286
0.7625418060200669,-1.1092340010816146,0.8614153561824969,-0.0016999543635469543,-0.0012654087632487905,0.005885110885823256,0.002159927731672212
0.7692307692307693,-1.0854372994628196,0.8381581919076284,-0.001278351006631745,-0.0006862469157257137,0.004027742167376539,0.002164968158456576
0.7759197324414716,-1.061142585652499,0.828494752637471,-0.0008916003356095935,-0.00020480624688922256,0.0026289877510273594,0.002178567451272307
0.782608695652174,-1.0364245844266537,0.824703341828087,-0.0005347179067085946,0.0002027898461602314,0.0015451426008371097,0.002205560448011641
0.7892976588628763,-1.0112932312195801,0.824593892953434,-0.0002056015850992854,0.0005465264944798902,0.0007059991299078409,0.0022487632390588404
0.7959866220735786,-0.9857699201277963,0.8269354119162585,0.0000981237292532921,0.0008344831761111581,0.00005689244113009546,0.002310258040158991
0.802675585284281,-0.9598598092958579,0.830575652451759,0.0003741315671226712,0.0010634763818735294,-0.0004260580459428433,0.0023947689832066253
0.8093645484949833,-0.9335369595371996,0.8355202915455063,0.0006311626500175425,0.0012491126451060354,-0.000809087504178655,0.0025012605149065097
0.8160535117056856,-0.906837384450883,0.8407308471373881,0.0008713552601534438,0.0013934972552276824,-0.0011187242754125022,0.0026311066152233985
0.822742474916388,-0.8797514085358851,0.8467675633108418,0.0010953084907415556,0.0014907217774317546,-0.0013694633183482905,0.0027916261455753363
0.8294314381270903,-0.8523482125705247,0.8529860493706247,0.0013090889689672627,0.0015469271415868339,-0.001588508222559709,0.002982538132942532
0.8361204013377926,-0.8244809871751324,0.8591183181727361,0.001518617976557122,0.0015589190355247775,-0.0017906852140653186,0.0032112842931541203
0.842809364548495,-0.7962944341024987,0.8656251653474827,0.0017309848694599715,0.0015159259815575627,-0.001986735682341273,0.003490809598877713
0.8494983277591973,-0.7677093734862767,0.8722599592027162,0.0019578222663443824,0.0014167021837845615,-0.0021888657986594492,0.003827446197842267
0.8561872909698997,-0.7387236320965999,0.8787314471012303,0.0022271229940400675,0.0012328234075552778,-0.0024100821275772396,0.004259231080036635
0.862876254180602,-0.7093873205299402,0.8854416222367568,0.0025758848023302162,0.0009493805900233942,-0.0026595463896995734,0.004813965886222979
0.8695652173913043,-0.6796500885060498,0.8918580565616044,0.0031401923571747373,0.00047769520332515986,-0.0029644360922855568,0.005620357664393413
0.8762541806020067,-0.6495408142063744,0.8983539771856902,0.0042001717581526725,-0.00033100340467916525,-0.0033632473867363866,0.006905532366810799
