# n,energy,berry,bcd_x,bcd_y,qmd_x,qmd_y
0.00000016666666666666665,-3.1318103576428404,0.000000003074565431006024,0,0,0,0
0.006688963210702341,-3.0844008950320383,0.00012887728869316622,0.00023750739144852618,-0.00041137562941487575,0.000251472427989475,-0.00014518775384040177
0.013377926421404682,-3.0378088454716794,0.00028301728057502116,0.0006505436393070698,-0.001126774648369296,0.0006556282280702606,-0.0003785269807299707
0.020066889632107024,-2.9920219450928056,0.00048302298427678903,0.0011414776092028216,-0.0019770961504625277,0.0010589530439553297,-0.0006113882404733952
0.026755852842809364,-2.947395965468337,0.0007529396525454943,0.0016433376292235098,-0.002846345329548516,0.0013142614145039088,-0.0007587894161154498
0.033444816053511704,-2.918956990644427,0.000989816309834241,0.0020114501565351144,-0.0034839338204953104,0.001210742163785181,-0.0006990235228080378
0.04013377926421405,-2.8962685110689397,0.0012184047657546914,0.0023795087576365353,-0.004121429999231357,0.0008498867708705548,-0.0004906827980409301
0.046822742474916385,-2.873802447881169,0.0014796515464262229,0.0027706880884740695,-0.00479897123786623,0.00025204171082995706,-0.00014551783915970143
0.05351170568561873,-2.851543643390697,0.0017772725073927802,0.003163057621879305,-0.005478576009019501,-0.0005981019956942728,0.00034531099377061185
0.06020066889632107,-2.829488950563549,0.0021128762562996153,0.003539175682580588,-0.006130031689043755,-0.0017290210261491678,0.0009982484380173045
0.06688963210702341,-2.807639915362063,0.002489103077710443,0.003678077362622941,-0.0067609355542212835,-0.0026982878314671956,0.0019248426715986816
0.07357859531772576,-2.7860014882417463,0.002909470418780779,0.004050573465373848,-0.007278475429454024,-0.00449702442021375,0.0030666885280809697
0.0802675585284281,-2.764595635406767,0.0033747907574811983,0.004307484186373923,-0.007701738601294655,-0.006709675723235348,0.00442365278425489
0.08695652173913043,-2.7434166484336813,0.00389360787715248,0.004468808872049025,-0.007985899733284419,-0.00942580841150577,0.0060724465317909815
0.09364548494983277,-2.722435208424809,0.004463895904508293,0.004536112358974173,-0.008110362209542138,-0.012740711376078092,0.008051761860638324
0.10033444816053512,-2.7016750306360846,0.005091885647332855,0.004499122017298536,-0.008052135651121329,-0.016769027821071203,0.010411854279297335
0.10702341137123746,-2.681136499156891,0.005775825545023818,0.004347743384296297,-0.0077903675059464,-0.021652121081893228,0.013215827646265497
0.11371237458193979,-2.6608431392688665,0.006523188302006673,0.004074296723022267,-0.007308788799033673,-0.02755238634030976,0.01653560558767734
0.12040133779264214,-2.640757217621889,0.00733397854909322,0.0036741029575946458,-0.006595817508929054,-0.034685678422532104,0.02047092370150377
0.12709030100334448,-2.6209148978959904,0.008206421908977635,0.003159744186004357,-0.005641959515407258,-0.0432708626673683,0.025121887163735347
0.13377926421404682,-2.6012934064576902,0.009148502176048526,0.0027450936812903493,-0.004221605116819283,-0.05338178879530245,0.030482549860706105
0.14046822742474915,-2.5819789498421675,0.010158772038557678,0.002019875920626584,-0.0029596230279853005,-0.06599983330225737,0.037077560898708416
0.14715719063545152,-2.562888859090231,0.011237557146119695,0.0013008005882796337,-0.0015934057311828827,-0.08112032116683265,0.044958904938874646
0.15384615384615385,-2.5440727449939065,0.012380357877966052,0.0006841225649685561,-0.00034698026379291654,-0.09918691571093119,0.054379014141818845
0.1605351170568562,-2.5255682895488185,0.013579076595442535,0.0003504106458202894,0.0004571348962025366,-0.1205967334451338,0.06559402833339967
0.16722408026755853,-2.5073664189339167,0.014825396180976698,0.0005888250164031207,0.000317544972461399,-0.1456986669829924,0.07885012622572803
0.17391304347826086,-2.4895003187031386,0.01610577648753254,0.0018412141671719428,-0.001530962456287376,-0.17456691628523222,0.09424905786697445
0.1806020066889632,-2.47203448642474,0.017395936420179805,0.004730751035420986,-0.006169299482434323,-0.20679262798831108,0.11162044583090713
0.18729096989966554,-2.4550667489213103,0.018667622849039316,0.010016912319029373,-0.014917727815366499,-0.24145404614578736,0.1304944257585934
0.1939799331103679,-2.438751366993058,0.019895350234037067,0.01861726579233715,-0.02937284077897806,-0.27728978633390655,0.15020027480701648
0.20066889632107024,-2.423392305497269,0.020995326809538736,0.03113393079484869,-0.05058570575774024,-0.2993410542566108,0.1622078540746631
0.20735785953177258,-2.407442397121364,0.021915016901103236,0.047331236177726846,-0.07812629211281455,-0.27303361012141825,0.14645756807851584
0.2140468227424749,-2.3911043148903133,0.022424377651953303,0.0692141625662065,-0.11548063218206357,-0.17531412144342584,0.08969312820326034
0.22073578595317725,-2.3748365746503093,0.02211880243265732,0.098399756979764,-0.16547912383015792,0.01420044852861042,-0.019816026791293864
0.22742474916387959,-2.3592182716783268,0.01977452843775621,0.13668088585503835,-0.23127496501849293,0.34077174264060567,-0.20815197660069312
0.23411371237458195,-2.3435562402043257,0.014647017981659394,0.17602638509151625,-0.2989783682918483,0.707543884524032,-0.41943850952273537
0.2408026755852843,-2.326923955197487,0.008564944265471225,0.21430952547218007,-0.36491593123379074,1.0692236249897635,-0.6275151763615074
0.24749163879598662,-2.309156794058842,0.0017700764408459437,0.25062416528712145,-0.4275813846050374,1.412230812515584,-0.8245003320789741
0.25418060200668896,-2.2908556054186975,-0.005863279317131586,0.28532093779770373,-0.4876634718814898,1.739347409545963,-1.012049554089917
0.2608695652173913,-2.2724268334007434,-0.01400685313993369,0.3196198885839509,-0.547327929741458,2.0488329751528775,-1.1892365858104295
0.26755852842809363,-2.254441617217768,-0.02208139651474788,0.35505610587447156,-0.6092420532311296,2.3356671645775413,-1.353283985605716
0.27424749163879597,-2.2366264966160863,-0.0305854901310011,0.3899079242803887,-0.6704172663124848,2.585062368988541,-1.4957746681131012
0.2809364548494983,-2.2172261047268886,-0.04246226243025202,0.42864469766284474,-0.7385726822835303,2.781072000297334,-1.6075462389129949
0.28762541806020064,-2.1994856417987787,-0.04907278534799084,0.4486480499331213,-0.7742215614914538,3.0319898090564217,-1.7516343180628073
0.29431438127090304,-2.183612122064351,-0.05120066141722945,0.44351801463535095,-0.7661717204918749,3.456277166326793,-1.9965755506196483
0.3010033444816054,-2.1677886412133494,-0.05029169615569702,0.42491576232547507,-0.732656772230279,4.01775909722787,-2.319423863079726
0.3076923076923077,-2.149907380970139,-0.04606566586516737,0.40134576488760265,-0.6864130934145962,4.708768580337464,-2.7142271795499524
0.31438127090301005,-2.130731143203368,-0.040384240486470525,0.3751393170015235,-0.6415455053704155,5.467158916588184,-3.156328711551545
0.3210702341137124,-2.110536863935847,-0.03472984342463969,0.35211426820192776,-0.6006250501504533,6.269933206887128,-3.6293430617660896
0.3277591973244147,-2.0903182308436468,-0.028965455296232415,0.338826951186693,-0.5756421992918892,7.092150947254541,-4.123029080031282
0.33444816053511706,-2.072361292505597,-0.022356306027459968,0.347529480944085,-0.5881909215876124,7.815372734300491,-4.576304980606989
0.3411371237458194,-2.0542051640788297,-0.026753718466981234,0.41560178733284603,-0.6997855449848726,8.688676202963013,-5.145431021421657
0.34782608695652173,-2.0360223555398713,-0.05959104386098994,0.6897834170591428,-1.157147145454547,10.009760990728946,-6.062794767473866
0.35451505016722407,-2.0179010651377896,-0.19958780689404826,2.0150324915376094,-3.725320336295021,13.52269986566462,-7.694168275234288
0.3612040133779264,-1.9999773139790296,-2.940822426760718,1.3967582874322035,-2.636509314037925,9.874269894442463,-5.479739908740751
0.36789297658862874,-1.9833002540077636,-4.147445619487477,-1.5237603971921863,2.8462587705898716,6.2128334806252,-3.4274255989147395
0.3745819397993311,-1.9684029743442175,0.05493234648134011,-4.6500210336958,8.724278492596207,12.459691449359294,-6.6446334986663205
0.38127090301003347,-1.9561195686825945,0.25987675577762914,-2.46812327948913,4.688357197291548,7.402322297823651,-3.6565683239734867
0.3879598662207358,-1.9442928007708289,0.42752156834837673,-0.9882834571330568,1.9275571811026724,3.534624329757189,-1.4481230549968762
0.39464882943143814,-1.9332237046138154,0.5332773870472352,-0.6733264446830962,1.2824897721533486,1.6408767270272628,-0.5332545483190094
0.4013377926421405,-1.9240433109891697,0.6652121290555044,-0.4906953859408209,0.909896723731099,0.42133168269539517,0.047760596910568914
0.4080267558528428,-1.9165188318972948,0.820099167053975,-0.424080727903332,0.7761947900671897,-0.2071082006331374,0.336070764218836
0.41471571906354515,-1.9089943528054198,0.9749862050524456,-0.35746606986584306,0.6424928564032804,-0.8355480839616702,0.6243809315271034
0.4214046822742475,-1.8987020290549632,1.0973340223578187,-0.3057034677301758,0.5433472903537041,-1.4310053922495305,0.9241103686956916
0.4280936454849498,-1.8878075972590171,1.2126033620063899,-0.2571717341776925,0.45171900562949696,-2.019287776998465,1.2263239171872171
0.43478260869565216,-1.875680304361491,1.2957391171863646,-0.23060436596217063,0.4028390148698441,-2.4600956350705303,1.4629534382825289
0.4414715719063545,-1.8636062017748294,1.3695839322183674,-0.20906464110310893,0.3635200999581925,-2.8398576518435528,1.6676950546409615
0.44816053511705684,-1.8518478998432237,1.4235690493690232,-0.1976189545622667,0.3432574326355428,-3.0800515255864336,1.7978984507077047
0.45484949832775917,-1.8401296620371885,1.4701955757799612,-0.19228665712407858,0.3340543219953276,-3.1995982359022,1.8601379703915861
0.46153846153846156,-1.8284455195703988,1.510559800341926,-0.19215697106015917,0.3342631062016914,-3.2164718962649297,1.8645389278031341
0.4682274247491639,-1.81627747332864,1.5433122847184437,-0.19790689071547812,0.3447222727594879,-3.1517736256193403,1.82602989583269
0.47491638795986624,-1.8039649260247468,1.5727107084552585,-0.20594807675223983,0.35916852891844836,-3.0700288871465755,1.7787897373937043
0.4816053511705686,-1.7915300530070535,1.5932243132611599,-0.21892361315678102,0.3821692189410887,-3.0147438183290998,1.7469877386327874
0.4882943143812709,-1.7791444689179354,1.607648624210173,-0.2336549477728264,0.4081795958365939,-2.9702275599760397,1.721396232400909
0.49498327759197325,-1.7668094375361798,1.6158275104909943,-0.2501870996462112,0.4372768286272307,-2.9367562267164637,1.7021744570695359
0.5016722408026756,-1.7548858091315223,1.6096247769057117,-0.2680400221594488,0.4685528718897824,-2.910179253988736,1.6868945416636436
0.5083612040133779,-1.7431858027952478,1.5970398981275664,-0.2861428345146747,0.5002237893670812,-2.8845476382619926,1.6721472899632581
0.5150501672240803,-1.7325787016356806,1.5570635314070462,-0.30422769721066034,0.531734311684083,-2.856116815000604,1.6557404717433815
0.5217391304347826,-1.7226159847358837,1.5018986613488985,-0.32084003762205926,0.56066617499854,-2.826306148423787,1.6385524787452177
0.5284280936454849,-1.7153360801473374,1.3834983799257885,-0.33132171786635495,0.5788621179151056,-2.790750678838357,1.618112163424383
0.5351170568561873,-1.7080561755587913,1.2650980985026785,-0.34180339811065064,0.5970580608316711,-2.7551952092529275,1.5976718481035483
0.5418060200668896,-1.6996544265095017,1.1653534901414457,-0.3513875303528223,0.6136615942738478,-2.6950298474497223,1.5631374437625367
0.5484949832775919,-1.6895058686832007,1.0946573769913557,-0.35957410278811935,0.6277856085457679,-2.596544756636277,1.5066573247828685
0.5551839464882943,-1.6786938293612224,1.033426490089157,-0.36584148221677343,0.6385520779579209,-2.4573478267802358,1.427084731909947
0.5618729096989966,-1.6668023353195562,0.9875951029661734,-0.3689864204582817,0.6438559720472486,-2.251914555612484,1.309941716808617
0.568561872909699,-1.6543240613051913,0.950948710675429,-0.3640907063494012,0.6353075251591238,-1.9320257154032767,1.1284833995124959
0.5752508361204013,-1.6415072844733218,0.9196305201247156,-0.35472434269722103,0.6191074970990035,-1.5681107847273217,0.9229925176194276
0.5819397993311036,-1.6281010992342857,0.8979451565726934,-0.3395920177309801,0.593667752038347,-1.392093380738909,0.8328145976249233
0.5886287625418061,-1.6138622597341499,0.8801795223972056,-0.3205486718412149,0.5634871290739767,-1.3668817724005433,0.841598309138762
0.5953177257525084,-1.598843393528641,0.8679074305833016,-0.29170955388489833,0.5209805082694551,-1.490773034721798,0.9555099223904973
0.6020066889632107,-1.5834256494462629,0.8658432042153905,-0.23295496164185242,0.44014507805038094,-1.7227081692922337,1.1736312610492614
0.6086956521739131,-1.5683568084204669,0.8789507933436262,-0.09688211178456396,0.24439134089075934,-2.0092944574969236,1.4356851281206757
0.6153846153846154,-1.553087157185515,0.9064847687288353,0.24563621059077256,-0.31614459831300384,-2.7088032287971706,1.8129520820920813
0.6220735785953178,-1.5374822766337746,0.9618212499150262,1.1151362079613338,-1.817109396696004,-4.0158326571036405,2.429150643815506
0.6287625418060201,-1.5215543965307754,1.0874479678591609,3.4598007541166016,-5.9494868702923975,-6.208066444470823,3.6234049718962273
0.6354515050167224,-1.5031022892130375,2.300523623302489,29.805260735398694,-51.607008342891476,-15.056736455873537,8.725697426888784
0.6421404682274248,-1.4822504908096847,2.5001670266073477,-20.41316969991501,35.37119846274363,-21.033996642592864,12.183061449540107
0.6488294314381271,-1.4604104722178013,1.1719484254880372,-7.645589098873671,13.240096609565981,-13.663754464117407,7.938450639438774
0.6555183946488294,-1.438241090488728,0.6340703817463117,-4.191326070940364,7.580672787945698,-11.449154269951142,5.34689126422605
0.6622073578595318,-1.4158496619672842,0.2416526569428442,-7.953173631236647,13.816654066674417,-9.798369597620908,5.50731338899325
0.6688963210702341,-1.393261720652887,-0.7197189285722879,-15.509223896668901,26.8757910000191,-8.034560652450757,4.615090953219215
0.6755852842809364,-1.3708320153489943,-1.7528604300945396,9.162329767969377,-15.861996637188774,-0.36080430919047846,0.21981376701196326
0.6822742474916388,-1.3490052732130275,-0.021099060476154313,20.60031385502797,-35.67210771391545,-0.14690970570162287,0.10656116733001753
0.6889632107023411,-1.3269558313101282,0.11405853154248236,4.722829989928017,-8.171732287503485,4.096675731595717,-2.3478876957642174
0.6956521739130435,-1.304499653982375,0.054150624957435764,2.1733320972191725,-3.761706140849609,5.816726095250541,-3.3467604620225107
0.7023411371237458,-1.2782355431136732,0.0013721830271281946,1.7227600838259838,-2.9818800126155502,6.531410416935775,-3.7614645495420507
0.7090301003344481,-1.250664210125724,-0.06524270502545516,2.536925496816661,-4.3919887786836105,6.733078387203321,-3.8859912152651193
0.7157190635451505,-1.2247106387183715,-0.22083399934187045,5.610214096676891,-9.714182803105215,6.828438760495796,-3.949999957592149
0.7224080267558528,-1.2008540637733551,-0.6701739988495551,17.61379447261445,-30.504116157700004,6.631006106018463,-3.835956818584508
0.7290969899665551,-1.179301178673663,-1.8984406991636227,6.419978256306276,-11.115477074791897,1.0342549853720975,-0.6122531267207973
0.7357859531772575,-1.1573197723394264,-0.6091122687335,-22.715238109360065,39.34908817382115,-1.471878762647883,0.8280382499133738
0.7424749163879598,-1.1342088300896658,0.18898139105173475,-8.436242532601415,14.618232940190005,-3.8167116942218176,2.1801568258523516
0.7491638795986622,-1.1105565555440395,0.3183635740989545,-2.243183267826825,3.8926006159382682,-4.555299559666756,2.606668766935897
0.7558528428093646,-1.0868087039877958,0.37728857092688106,-0.9580556226361862,1.6676585480256205,-4.4701369345999735,2.5589711463209626
0.7625418060200669,-1.0632923245838741,0.4183341631845578,-0.45645613807784396,0.7996733835283588,-4.126393038137094,2.3627601500109368
0.7692307692307693,-1.0402175717482764,0.44890424663305123,-0.2146299428418336,0.3814503801829816,-3.6418426132450357,2.0855928141442095
0.7759197324414716,-1.0180458085660624,0.46989795810350865,-0.07449601620869499,0.13917840853902635,-3.068395919676073,1.7570837519359293
0.782608695652174,-0.9976805016169001,0.477674926173936,0.03209941924647056,-0.04517080141067105,-2.4674871020379276,1.4124324664502719
0.7892976588628763,-0.9768677814909377,0.4810834140110855,0.1096368176705777,-0.1793010029281067,-1.9330577218466096,1.106061272009432
0.7959866220735786,-0.9544351170936389,0.48556326209129874,0.14411079344347985,-0.23894617724226655,-1.516289874403965,0.8675723862685355
0.802675585284281,-0.931066451437056,0.4901343242698602,0.1482021885985831,-0.24606910538519255,-1.201891055153893,0.6880167518829866
0.8093645484949833,-0.9069679377584985,0.4944247957189811,0.137043783960384,-0.22687180950987676,-0.965883264117578,0.5535080189403373
0.8160535117056856,-0.882239822001418,0.4988030072101046,0.11882301456133765,-0.1955221575503962,-0.7905989142990962,0.4538243306096009
0.822742474916388,-0.8570500344724061,0.5031062752722144,0.0982309211106623,-0.16012087062680297,-0.6550146575335946,0.37685942203102263
0.8294314381270903,-0.8313960054008549,0.5076681810982061,0.07690376271669938,-0.12348831766065094,-0.5488340705176409,0.3166893673342223
0.8361204013377926,-0.8053341901442422,0.5124556136107049,0.05566511338938485,-0.08704179216056813,-0.4652206475476404,0.2693851091613137
0.842809364548495,-0.7787892951417766,0.5175914394444415,0.034896494280166265,-0.05144331043948059,-0.40055720335682926,0.23286736945335926
0.8494983277591973,-0.7519037673757103,0.5233052199658799,0.01466531308964339,-0.016803510473458832,-0.34816348670502467,0.20333048796898032
0.8561872909698997,-0.7246761296474751,0.5296705054350554,-0.005054569649431092,0.01690655905509951,-0.30539074539055927,0.17927595479502265
0.862876254180602,-0.6970475589900809,0.5366458546645988,-0.024203777383493927,0.049476408586289544,-0.27154107947666395,0.1603271963871785
0.8695652173913043,-0.6691532354122466,0.5447843715815522,-0.04279538363735239,0.08057492651229929,-0.2440026360538621,0.14498956107311411
0.8762541806020067,-0.6409377563553702,0.5537998635308726,-0.06064121958834201,0.1094609490105336,-0.22227747680660984,0.13306222227459819
0.882943143812709,-0.6124587594375297,0.563988428556727,-0.07633890393334221,0.15733379852584956,-0.19119713485547918,0.12056832604815883
0.8896321070234113,-0.583749142180283,0.5756727345629074,-0.07708071724115399,0.1986918126836965,-0.16487659509256655,0.11927179689244416
0.8963210702341137,-0.5548587420771139,0.5893701232721253,-0.1245495561635021,0.21145458318235916,-0.16588844491305677,0.09752300613566108
0.903010033444816,-0.525812875720329,0.6051238398249738,-0.1412455003510273,0.23935094429010373,-0.1538174681876494,0.09073534306593735
0.9096989966555183,-0.4967061909841751,0.6236278806850603,-0.15619837649443385,0.26403512301755877,-0.14343348183007115,0.08492292272663214
0.9163879598662207,-0.4675954054221753,0.6455632347371337,-0.16823923805759367,0.2833464764623861,-0.13458399569396257,0.08000840984229016
0.9230769230769231,-0.4386542291621125,0.6712443113863754,-0.17642282504652992,0.29547583639171987,-0.12706321461339715,0.07588261427951659
0.9297658862876255,-0.4100579769423289,0.7029546895307046,-0.1782123717241365,0.2950678657569378,-0.12216160250428676,0.07322575925511168
0.9364548494983278,-0.3821087188935867,0.7407175035033928,-0.18520377743814015,0.2546408811240154,-0.10715257722636787,0.08316757773287331
0.9431438127090301,-0.3552765738407048,0.7864176665238245,-0.12973740900580927,0.224712367041331,-0.10546433700624062,0.06089010368381284
0.9498327759197325,-0.3307662285564129,0.8415998318090904,-0.08982909618659574,0.1555890684241843,-0.1063405578976447,0.06139568240295944
0.9565217391304348,-0.3117428729055537,0.8940057307616975,-0.05287972160621912,0.09159007278643863,-0.11560905289484287,0.06674664588695205
