# n,energy,berry,bcd_x,bcd_y,qmd_x,qmd_y
0.00000016666666666666665,-3.159321249877445,0.000000004910945905696804,0,0,0,0
0.006688963210702341,-3.1121227779487444,0.00020336348129835905,0.0003129932306008811,-0.0005421203162662415,0.0003126130351027439,-0.00018048738618711517
0.013377926421404682,-3.0657398894074164,0.0004316559919388446,0.0008603275305937067,-0.0014901320380437645,0.0008103363570558249,-0.0004678484968790948
0.020066889632107024,-3.0201879640591884,0.0007042112049722463,0.0015156584705809703,-0.0026251986075450113,0.0012974385961109476,-0.0007490752052595189
0.026755852842809364,-2.975490899342672,0.0010428953805212257,0.0021987870564110458,-0.0038084106030742103,0.0015951318917095047,-0.0009209470898788242
0.033444816053511704,-2.932242753268599,0.0014687565478113433,0.0028362989165930715,-0.004912614024976574,0.0014869206942480038,-0.0008584759673721756
0.04013377926421405,-2.909699200513502,0.001751961452528023,0.003257875788766867,-0.005642808396256899,0.0009844511390970684,-0.0005683715123308398
0.046822742474916385,-2.887397332791229,0.0020722471473810233,0.003739293418315113,-0.006476646663683522,0.00010364229367832613,-0.00005983591035648101
0.05351170568561873,-2.8653027638156185,0.0024312018838640193,0.004239162607287475,-0.007342445128091501,-0.0011540674439046877,0.0006663020731369019
0.06020066889632107,-2.8434313187387334,0.0028331973390743792,0.004659127206490061,-0.008216603251742326,-0.002598162196960113,0.0016933318341135855
0.06688963210702341,-2.821784355477063,0.0032801953320232002,0.005019595633202781,-0.009068325474323414,-0.004314520192583207,0.00307503608182668
0.07357859531772576,-2.8003513633495625,0.003776487796006153,0.005501957461999231,-0.009828740834910029,-0.006966245118270917,0.004684552947863299
0.0802675585284281,-2.779134165757648,0.004323695840906105,0.005889441874519891,-0.010498664549481547,-0.010190070366503181,0.006623522370508633
0.08695652173913043,-2.7581532305072676,0.004925856867202782,0.006201554376502877,-0.01104702462525088,-0.014113542655932905,0.008943406376763698
0.09364548494983277,-2.737392914606238,0.0055881343519672486,0.0064330973817739515,-0.011454756278954991,-0.01886613611511563,0.011698415007936693
0.10033444816053512,-2.716859680329023,0.006312329885979935,0.006578776953611672,-0.01170785843883188,-0.024591615258424092,0.01494991734538416
0.10702341137123746,-2.696574678685579,0.007100072850783134,0.006637516617998188,-0.011800643978318993,-0.03145084622449058,0.018768377675660454
0.11371237458193979,-2.6765284778164244,0.00795378439327946,0.006615498838933824,-0.011739883080804415,-0.03963896871169374,0.023244781136136834
0.12040133779264214,-2.6567219733206664,0.008877332642304324,0.006529375848912643,-0.011550005120239737,-0.04937609858159478,0.028488035464512437
0.12709030100334448,-2.637167817865373,0.009871359910430732,0.006411350316362471,-0.011281876024983897,-0.06090132610168738,0.03462570140816586
0.13377926421404682,-2.617881100293315,0.010935835062957134,0.0064077389152892746,-0.010882952075840554,-0.0743332392924825,0.041733445816247675
0.14046822742474915,-2.5988727760509107,0.01207276969587851,0.006621858615207398,-0.010494432289931124,-0.08994320072084208,0.04995225314365098
0.14715719063545152,-2.58014949543675,0.013273716653133571,0.006850544865866593,-0.010880355596693675,-0.10851930836108961,0.05968815080321718
0.15384615384615385,-2.5617220680394097,0.014536869512266029,0.0075225733467124325,-0.011833193514396254,-0.1296939436219187,0.07091100447062017
0.1605351170568562,-2.5436695443419874,0.01586822848823991,0.008983956507929203,-0.014072668645980052,-0.15395131360500436,0.08390589259861234
0.16722408026755853,-2.5260477196438034,0.017249686947092648,0.011695881198287994,-0.018420393756214532,-0.1809044026354028,0.0985086590012985
0.17391304347826086,-2.508893369055327,0.018670699056963756,0.016193424189973566,-0.02581327607166226,-0.20975642899842917,0.11430143549032823
0.1806020066889632,-2.4924916073642676,0.020138811720620663,0.02300829476920529,-0.03718745838751126,-0.23989006225964055,0.13096575788598708
0.18729096989966554,-2.4767187257199437,0.021627063386242252,0.03205680493537305,-0.052405162258584576,-0.26671981982964077,0.14585539036439563
0.1939799331103679,-2.4612090592443634,0.023072858198823615,0.04341165957298025,-0.07158428058319942,-0.27950659481896073,0.15278258397524222
0.20066889632107024,-2.4448640884052133,0.02407581686045882,0.05967555640229966,-0.09920499789836469,-0.23962262952847174,0.1294546833914326
0.20735785953177258,-2.428411239027554,0.024461042622911947,0.08177373116651103,-0.13691651223671633,-0.14009213459222092,0.07184051372618319
0.2140468227424749,-2.4121556614597814,0.023723592877036154,0.11056203431172336,-0.18623010229677883,0.033533700083256235,-0.02840681362787354
0.22073578595317725,-2.396297770155059,0.021306704806580236,0.14548944122924176,-0.24621615820692144,0.2833818763843225,-0.1725345081684133
0.22742474916387959,-2.3811969616355992,0.015076383224358083,0.1829034155341432,-0.3106042087058303,0.597680360114852,-0.35374160132848087
0.23411371237458195,-2.3645500072386656,0.008256841572114409,0.21901673557374382,-0.37280362836740716,0.9030282302256276,-0.5296632143081388
0.2408026755852843,-2.346847856018058,0.0005588546732153993,0.2530756773738091,-0.43157366865333935,1.19842270286255,-0.6997427981094773
0.24749163879598662,-2.3285216351848796,-0.008125767946833243,0.284794342063609,-0.48649102812556544,1.4833043637819214,-0.8636999067983492
0.25418060200668896,-2.3098815611908705,-0.017705470468967196,0.31465350449993734,-0.5384298270103057,1.757039699582237,-1.021224483260989
0.2608695652173913,-2.2913499437887817,-0.02790943056114844,0.34351357593864806,-0.5888673596522527,2.016822427409711,-1.1707568233706882
0.26755852842809363,-2.2734831375577436,-0.03802552564192203,0.3721537309946462,-0.639103356746193,2.2583927597595133,-1.3099131353957498
0.27424749163879597,-2.2555971334691622,-0.049170402140044964,0.3996950803362903,-0.6875717010453438,2.4791773657564304,-1.4373704045592672
0.2809364548494983,-2.236055125500988,-0.06441952093704206,0.4303678406232133,-0.7415510938673038,2.66934043825187,-1.5476804507781892
0.28762541806020064,-2.21794902023901,-0.07533153019064577,0.44759261290791946,-0.772056514275789,2.8938811727081886,-1.678651714449083
0.29431438127090304,-2.2024984484342265,-0.08090690797889646,0.43829156160643973,-0.7563232033348303,3.2743912533777584,-1.9005045434076275
0.3010033444816054,-2.1874031605935476,-0.08385448656191767,0.41692182915212417,-0.7178190557746384,3.76313539243391,-2.18421708953967
0.3076923076923077,-2.170400417113067,-0.0850120957183212,0.3913210566009667,-0.6675607994909775,4.374801693107366,-2.536933069562599
0.31438127090301005,-2.151914810604777,-0.08674697105660613,0.3671314834004337,-0.6253123035492422,5.086176505714683,-2.957101324762612
0.3210702341137124,-2.1323717385108214,-0.09265956451730722,0.3588336560552557,-0.6088515184757429,5.883811782282259,-3.4355740724347053
0.3277591973244147,-2.1119208525779514,-0.10855510137113356,0.3926349050207599,-0.6630754388592709,6.824393854010496,-4.015662379838238
0.33444816053511706,-2.0909656124070835,-0.14874394435016294,0.5575856642208619,-0.937360174311437,8.07196761000917,-4.829831286892442
0.3411371237458194,-2.0728818037177152,-0.23750962133779827,1.0971835899913192,-1.9749344825454203,10.154699140069795,-5.803250088701936
0.34782608695652173,-2.0550421403564623,-0.5764762941613901,4.574202952451924,-8.840081309039943,15.484206973047048,-8.291499057153002
0.35451505016722407,-2.0372535651096024,-1.882013046714981,-20.33919704902513,44.987168065371954,15.777518913427002,-11.736504255440355
0.3612040133779264,-2.02032288977764,-1.9407528425991143,-31.118591655545416,67.32938440631447,12.361146390570202,-10.950460551602896
0.36789297658862874,-2.0044586362280747,0.03980530640339579,-3.375418828303621,6.2425037663385,9.20706867134768,-4.9690245832009845
0.3745819397993311,-1.9887770163548344,0.2576064196750238,-1.3718498487373938,2.6207338851254773,5.027298118821556,-2.4185201069334004
0.38127090301003347,-1.9735845383555068,0.3921169536425929,-0.6846822169849682,1.3155579452040764,2.804770956402525,-1.2570425158037386
0.3879598662207358,-1.9594670211747918,0.5087025948480067,-0.39797638946137287,0.7476785857208962,1.4808245747632172,-0.633666261094764
0.39464882943143814,-1.9464547918963786,0.6239439843333151,-0.2651056026952632,0.48737250252538117,0.7286957446767934,-0.3033747048729648
0.4013377926421405,-1.9378901804694308,0.7777593882852673,-0.22026168472924873,0.39855530956010315,0.3239587821853657,-0.10104669888438053
0.4080267558528428,-1.9298900513985853,0.9364705254808638,-0.18658995285476004,0.3315031278964583,-0.0366879309951631,0.08504044092748664
0.41471571906354515,-1.9209647832357057,1.0825722448262605,-0.15718348571694615,0.2744534752612185,-0.41142338528325334,0.28225655577829806
0.4214046822742475,-1.9100247219573407,1.201212830496064,-0.13706602830877368,0.23918760281363277,-0.816841683733688,0.5037096556229843
0.4280936454849498,-1.8982693157335435,1.3078608542121477,-0.12414492342970247,0.21613180433529552,-1.2076455923605582,0.7187458803142945
0.43478260869565216,-1.8854477507071883,1.3988272016465402,-0.12063389049404052,0.2090421045187933,-1.5793394783624048,0.9253912908256493
0.4414715719063545,-1.8720747189004066,1.4760287639196883,-0.12757887129449816,0.220946570259628,-1.9047561480587984,1.107716929916469
0.44816053511705684,-1.8585648620096062,1.5464195411477923,-0.1396483032791727,0.24205247401026403,-2.174008763801325,1.2586729359272752
0.45484949832775917,-1.845003388904649,1.6076774138836039,-0.15854170432035394,0.27530623789268766,-2.3357044005288143,1.3488218434685746
0.46153846153846156,-1.8310509909124226,1.6601343595665057,-0.18021585226276066,0.3134077511055823,-2.4480256914688754,1.4134315967368862
0.4682274247491639,-1.8173113274260742,1.7044570615364476,-0.2024630357948955,0.35250093641301755,-2.540295621282111,1.4672990021053463
0.47491638795986624,-1.8042503362360331,1.7366644663782989,-0.22430495852826646,0.39087211214342216,-2.6188255202733797,1.513273583730302
0.4816053511705686,-1.7911303936137049,1.7625259906628372,-0.2477977554997899,0.4320733412131845,-2.6969380614513194,1.558995984244208
0.4882943143812709,-1.7780126582716451,1.7843777663592502,-0.27211974734807254,0.47468513961017517,-2.774519638263137,1.6043958503753792
0.49498327759197325,-1.764998173840844,1.7977801405968292,-0.29765441637789614,0.5193255976311373,-2.850314519107136,1.6487082672621527
0.5016722408026756,-1.7522166315638423,1.8032505268265449,-0.32338468395858855,0.5642336885560786,-2.9215364738385063,1.6903421898730362
0.5083612040133779,-1.7395923907210904,1.803364591455652,-0.3492470355442022,0.6093225069232697,-2.9896704179865554,1.730167375918404
0.5150501672240803,-1.7277593758501142,1.7831331009854334,-0.37430135935310355,0.6528802318453891,-3.04331855329395,1.7616069450118255
0.5217391304347826,-1.716600214261071,1.7479044625438953,-0.3982796052176706,0.6945407284007156,-3.090779010860372,1.7894608288242577
0.5284280936454849,-1.707691356120185,1.6629229385016873,-0.41860949670873854,0.729781645123723,-3.11844530785247,1.8058431813998923
0.5351170568561873,-1.698782497979299,1.5779414144594792,-0.43893938819980644,0.7650225618467305,-3.1461116048445676,1.8222255339755267
0.5418060200668896,-1.6904064338137006,1.4743744774854735,-0.4514363564022876,0.7866270293937238,-3.1452906058335395,1.8222768931597857
0.5484949832775919,-1.682081203750982,1.3690342982511226,-0.4631859820168837,0.806930437445903,-3.1417516216294423,1.8207701052239742
0.5551839464882943,-1.6725184492500433,1.2838339812931086,-0.4740782928963635,0.8257193638221779,-3.112734833836529,1.804864712040625
0.5618729096989966,-1.6613849282059696,1.2241968135303607,-0.4838824302729476,0.8425859870315576,-3.0513795481247983,1.7706834394547128
0.568561872909699,-1.64945300098841,1.1764667471191834,-0.4889878906962036,0.8513965809866155,-2.9287504227493315,1.7018888143825377
0.5752508361204013,-1.6369708799067209,1.1369420457474553,-0.4908554212097241,0.8546556423857279,-2.7638965604740404,1.6092416005061667
0.5819397993311036,-1.624054566048017,1.1107719905213975,-0.482581176331014,0.8418457432181105,-2.5884480667503214,1.5128119423351123
0.5886287625418061,-1.6105402473861836,1.0882195388235378,-0.474500819884314,0.8254765053863112,-2.501420209539777,1.4714414326431249
0.5953177257525084,-1.595977222636568,1.0708244787009737,-0.46789791383182744,0.8043569846723015,-2.5777269739074278,1.5314673208906266
0.6020066889632107,-1.5802185912166862,1.0609777779995213,-0.44124315262665476,0.7739273875968326,-2.7199260106619922,1.651118385074781
0.6086956521739131,-1.564197114680087,1.0510494952219405,-0.4135438780889196,0.7448508802153915,-2.787320601056609,1.735178210717596
0.6153846153846154,-1.5471132770426703,1.0231942185570537,-0.3614010906504653,0.6901520359763167,-2.788504481499554,1.7891400480615784
0.6220735785953178,-1.5282281729668497,0.9682249489346126,-0.19341453728643931,0.4438643556571578,-2.933762574414262,1.8866069283276936
0.6287625418060201,-1.5089479071258458,0.9351799552031435,0.40148690651332297,-0.6042760403520805,-3.7167262737225233,2.2306723031944933
0.6354515050167224,-1.4895186978301878,1.0110976804176828,2.9465708091522274,-5.070113190211686,-5.313675012642581,3.0940983383066234
0.6421404682274248,-1.4704280444708997,1.7084862181732678,10.340063789693158,-17.902406376589443,-7.993640759776853,4.635343549288977
0.6488294314381271,-1.450211988526131,6.028007017398614,-5.146375970504388,8.911222921695535,-3.6664577104944254,2.1438525414416834
0.6555183946488294,-1.4281848173661111,1.0552119551402814,-24.643902191842812,42.68287675390284,-15.514942328797586,8.986020759568282
0.6622073578595318,-1.4059285282153229,-0.9122304475930674,-33.22304307465332,57.60377882452891,-10.373316472192638,5.838313375301987
0.6688963210702341,-1.3839355086997625,-1.5297990140076811,3.333178688330262,-5.580932174827998,-2.612632566968882,0.8394379879006123
0.6755852842809364,-1.3628955319930673,0.24653194975549075,12.846596276245865,-22.216632733179416,-1.9898207908025793,1.0089396758322708
0.6822742474916388,-1.3411872406490508,0.27990168210664623,4.018214420585958,-6.9508222598200895,1.5646412874606765,-0.9628020638757173
0.6889632107023411,-1.319205511513161,0.1929127299612824,1.9574980251178329,-3.3892469705356327,3.449382793406208,-2.0222637369864254
0.6956521739130435,-1.2956673656506508,0.09020131720960292,1.427980182818437,-2.467557453116899,4.492955823504439,-2.617484706025544
0.7023411371237458,-1.2681273963096427,0.014615289025265349,1.6074503293858757,-2.780964097182407,4.961735427382384,-2.8757983122944832
0.7090301003344481,-1.2404547240405877,-0.08595372246882745,2.7227858740124034,-4.7138176825266465,5.129626861943265,-2.9698019268049416
0.7157190635451505,-1.2143644636955142,-0.28375493611533403,5.861825283985516,-10.150900295964114,5.147879779740303,-2.981950544426716
0.7224080267558528,-1.1902689889547422,-0.7846781417021358,14.962223825562862,-25.913883642717607,4.515844410051028,-2.617240735115025
0.7290969899665551,-1.1689462479687482,-1.8626296388939496,5.123395577365287,-8.87162203956322,0.0530482541437598,-0.04551503462234763
0.7357859531772575,-1.1471999017687426,-0.9926200383382,-27.201255993815625,47.117393605593435,-1.0110418204173284,0.5646492131510175
0.7424749163879598,-1.1244012984466334,0.08199939636050846,-14.003930625489385,24.259836188128645,-3.1174120870682884,1.7786790587614074
0.7491638795986622,-1.1008405444097424,0.3487628100034806,-3.920034896351127,6.795065786674567,-4.333843240883822,2.4800796493942965
0.7558528428093646,-1.0769243857918027,0.43576565235660114,-1.720700725141437,2.9868234058168546,-4.481097349204008,2.5655048537934793
0.7625418060200669,-1.0530369682218,0.4921155006666145,-0.8794399936711323,1.5307943044958185,-4.312703403771362,2.469629417269317
0.7692307692307693,-1.029338553498086,0.5340348048833687,-0.4874072190100751,0.8527547566697902,-3.9871530199122365,2.2836327603826776
0.7759197324414716,-1.0060835520048537,0.5660546857707542,-0.2768535984695082,0.4888955291344357,-3.568077181084291,2.0439271732575066
0.782608695652174,-0.9835260528700915,0.5886755688548779,-0.14821941252769277,0.2667528420318416,-3.0866754124321227,1.7682766553722138
0.7892976588628763,-0.9624725694492828,0.5979865495236948,-0.05691655402917718,0.10908285367161544,-2.5708370042132986,1.4725775299386552
0.7959866220735786,-0.9425027008969135,0.5955168210310774,0.021886953079247408,-0.027090893710233863,-2.101503278013825,1.20350906590663
0.802675585284281,-0.9211510581241863,0.5954316042020217,0.07273929980870415,-0.11495428937313022,-1.7102327554339585,0.9795122663855971
0.8093645484949833,-0.8983726001467697,0.5990159040194413,0.09246312342187024,-0.14901695603544915,-1.3996801149176148,0.8020771421276351
0.8160535117056856,-0.8747607210402117,0.6034527333801838,0.09272822103892242,-0.14949608521391902,-1.1550412156719774,0.6625643673933657
0.822742474916388,-0.8504483378417483,0.608490221085624,0.08120126737665243,-0.12967794125441773,-0.9674513442245477,0.5557987128464069
0.8294314381270903,-0.8256352446627635,0.6142565462302501,0.06425961128871639,-0.10058109941762301,-0.8183297003078343,0.4710597906552959
0.8361204013377926,-0.8003556377278597,0.6205530657509684,0.04437656943812751,-0.06648284070662705,-0.6987464086719682,0.4031974454414004
0.842809364548495,-0.7746151496268263,0.6277391199215664,0.02292661422603171,-0.029765268704767426,-0.6019892967581377,0.3483517312263583
0.8494983277591973,-0.7484654185143147,0.6354259111062305,0.0007443815891249256,0.008095497410230284,-0.5245050580685537,0.30447886819961234
0.8561872909698997,-0.7219579955220801,0.644318018010485,-0.021601363239014588,0.045989533962020164,-0.4620842317859029,0.26916904743648906
0.862876254180602,-0.695154289102499,0.6542535221184576,-0.04375455363670308,0.08286914604017921,-0.4108644852329152,0.24017607222361453
0.8695652173913043,-0.6680655517308948,0.6654484831354498,-0.06538400559126324,0.11627373272489132,-0.37036698962017434,0.21696791115419115
0.8762541806020067,-0.6406620793279484,0.6783586849814643,-0.08559062171302681,0.16992075996147618,-0.32267319954946655,0.19434086761893943
0.882943143812709,-0.6130910340280147,0.6930686655844461,-0.10183788309865323,0.20875497139296015,-0.2892734356646892,0.179102843860252
0.8896321070234113,-0.5853449598541812,0.709727278130462,-0.13689094671134297,0.2341824713157141,-0.2696834529378365,0.15728423300406735
0.8963210702341137,-0.5575085189406701,0.7293070398168938,-0.15467442696639344,0.2641291379847355,-0.24735908921634225,0.14461726431208746
0.903010033444816,-0.529633324795466,0.7519591738920565,-0.16958576537067,0.2890325467707049,-0.22777958715395893,0.13351612346495906
0.9096989966555183,-0.50184542458597,0.778516734438716,-0.17995979100643605,0.3059710692870791,-0.21070914952513348,0.12384904071307341
0.9163879598662207,-0.4743141402824902,0.8097368639831358,-0.18326272844058983,0.3104901116419337,-0.19602739658172388,0.11555383361343538
0.9230769230769231,-0.44721898617047634,0.8465540092781177,-0.1778003620571689,0.29960350584588913,-0.18351648719226984,0.10850889890135294
0.9297658862876255,-0.4208806901939729,0.8897427159611643,-0.16054511280980155,0.2679163732589895,-0.17387336673804718,0.10312547487973928
0.9364548494983278,-0.39605789658832635,0.9415026430123551,-0.12869207085721507,0.21022819122135433,-0.16965572669738702,0.10082654667237662
0.9431438127090301,-0.37376707838090656,0.9994560609177934,-0.09011574079221635,0.15242828246341875,-0.18490431199248303,0.1029820032674853
0.9498327759197325,-0.3563696683514933,1.0517436635865507,-0.056560787855040824,0.11245325194753811,-0.21051642750013097,0.10795442499429447
0.9565217391304348,-0.34458709158455525,1.0873979195994217,-0.029705378636830142,0.0557584040724384,-0.20206984997914612,0.11262485840821675
