# n,energy,berry,bcd_x,bcd_y,qmd_x,qmd_y
0.0000015,-2.9999956162668693,-0.00000000000000001899043621878579,0,0,0,0
0.006688963210702341,-2.9758339613226665,-0.0000000012409333901008354,-0.000000000000000000007060066308015378,-0.00000000000000000000007824850315373136,-0.0000000000000000000005003935893066703,-0.0000000000000000000002609070847162747
0.013377926421404682,-2.9518325468689857,0.000000000000000000000007814839862923862,-0.00000000000000000010670555696197134,-0.00000000000000000013181197093561678,0.00000000000000000008136839971808161,0.00000000000000000003582035725575037
0.020066889632107024,-2.928018380771525,-0.00000000000000000000010207061538750667,-0.00000000000000000015027011578678022,-0.0000000000000000004114447741589055,-0.00000000000000000007648050322654474,0.00000000000000000009022093361506948
0.026755852842809364,-2.9043601096610017,-0.0000000000000000000007482583183860314,-0.00000000000000000024669073641608407,-0.00000000000000000033146946501869356,-0.00000000000000000006184258160003193,-0.0000000000000000001536393162089987
0.033444816053511704,-2.880858446840767,-0.000000000000000000001126060226433913,-0.000000000000000000003340915082381587,-0.0000000000000000007283436766279925,-0.00000000000000000016789696624581,-0.000000000000000000020737713697336866
0.04013377926421405,-2.85756552065026,-0.000000000000000000002551409924955692,-0.00000000000000000012476975085895834,-0.00000000000000000054365256703091235,0.000000000000000000928044760863722,-0.0000000000000000006799051828558659
0.046822742474916385,-2.834441420468473,-0.0000000000000000000032635900473572454,0.0000000000000000003928818490715329,0.0000000000000000008012468502146566,-0.00000000000000000042655593255864717,-0.00000000000000000007143265804919141
0.05351170568561873,-2.8114676332307464,-0.00000008073443600419706,-0.00000000000000000024152321632666013,-0.00000000000000000014649137046843015,-0.00000000000000000015094995973953735,0.0000000000000000004860722775415529
0.06020066889632107,-2.788689680889861,-0.000000000000000000013129711278442608,0.0000000000000000011985115406986528,-0.0000000000000000013211800988742648,0.000000000000000001527791367537373,-0.00000000000000000002693250662290152
0.06688963210702341,-2.766048890198413,0.0000007839501887398265,-0.00000000000000000003018441549148239,0.00000000000000000181171134532232,0.000000000000000002060442089188491,-0.0000000000000000014935643568750403
0.07357859531772576,-2.743545513164042,-0.000000000000000000022882256279687975,0.000000000000000002141215291958581,-0.0000000000000000014517410132293324,0.000000000000000002729812899957625,-0.00000000000000000097411593130602
0.0802675585284281,-2.7212368169300016,-0.000000000000000000031944592822269084,0.0000000000000000031881198052620815,0.000000000000000011498739794820854,0.0000000000000000039283366267638315,0.0000000000000000005358069478908462
0.08695652173913043,-2.6991118755944026,0.00000039011210192224634,-0.00000000000000000829907609853474,0.000000000000000003703601380836367,-0.00000000000000000034771645332734087,0.0000000000000000001864342149611685
0.09364548494983277,-2.6771366793618387,0.000000940062035848012,-0.0000000000000000013035095116278737,0.000000000000000004023881693608579,-0.0000000000000000023953389169391186,-0.000000000000000003507483985550305
0.10033444816053512,-2.6553078757325825,-0.00000000000000000008194169326478024,0.0000008218588834430694,0.0000014235013426530395,0.00007295739104663813,-0.0001263659080805487
0.10702341137123746,-2.6336399427515045,-0.000000000000000000097675352974467,0.0000019002714038003235,0.000003291366619492318,0.00002504291161563601,-0.000043375595287767204
0.11371237458193979,-2.6121356762166683,-0.00000000000000000012938847249727716,0.000002925719624737937,0.000005067495038780806,0.000019897282112093444,-0.00003446310355069036
0.12040133779264214,-2.5908157556314557,-0.0000045987546977236035,-0.000000000000000002471885486388587,-0.000000000000000002487200515257244,-0.000000000000000010221486594007961,0.00000000000000000192177631709294
0.12709030100334448,-2.569600991719629,0.000001992983183793805,-0.000000000000000005905586006567994,-0.00000000000000000011375742563901537,0.000000000000000012217800528417127,0.000000000000000003870251301008905
0.13377926421404682,-2.548614463271522,-0.0000002005197609479795,0.000000000000000012265689321498128,0.000000000000000004478884100412071,0.0000000000000000029427078282916467,0.000000000000000005905496341010196
0.14046822742474915,-2.5277403152846,0.0000035663764292912474,0.000000000000000004077710483368744,-0.000000000000000002355025801626688,0.000000000000000021829362591600066,-0.000000000000000007640245009423697
0.14715719063545152,-2.5070173942215184,-0.0000038098051591872312,-0.000000000000000011077872117765847,0.000000000000000025380777419724834,0.000000000000000009297338091585519,-0.000000000000000009918284401431554
0.15384615384615385,-2.486471564364776,-0.000003182325721242874,-0.00000000000000001778251710263686,0.000000000000000002094224839691373,-0.0000000000000000016754237671844534,0.00000000000000000523928327246779
0.1605351170568562,-2.466069011413562,-0.00000044956830750050226,-0.00000000000000004375430787059132,-0.00000000000000006983805187847348,0.00000000000000000603609430491736,-0.000000000000000013205283400570153
0.16722408026755853,-2.4457929010914397,0.0000054608062615830586,-0.00000000000000002326433985953919,-0.00000000000000011912288424193097,0.000000000000000019840309146989082,0.000000000000000003332514500227304
0.17391304347826086,-2.4257148043244205,0.000002229660944853886,0.000000000000000011335634924681807,-0.000000000000000001921143494161703,0.000000000000000004818723585915344,0.00000000000000000836066558833795
0.1806020066889632,-2.4058403651061444,-0.000005028770380873518,0.000000000000000037205837979149124,0.000000000000000049272457869172426,-0.000000000000000010411048069594618,-0.000000000000000004966734257711465
0.18729096989966554,-2.3859971289171966,-0.000007894670294813609,0.000000000000000011830726514999287,0.00000000000000001659670543299405,0.000000000000000015926368521297873,0.00000000000000001560038913723256
0.1939799331103679,-2.3663380574999167,-0.0000001258151871267956,-0.00000000000000003632025057576769,0.000000000000000047819764494419797,0.000000000000000021859912350419717,0.00000000000000004101125488484436
0.20066889632107024,-2.3468848854295943,0.0000000000000000016626374941361044,0.000024328149762270762,0.00004213759144238361,0.0000214329705250765,-0.000037122993906630054
0.20735785953177258,-2.327559473991555,0.00000000000000000156135406585404,0.000026385827937890544,0.00004570159458818156,0.000023125391187893615,-0.00004005435248239905
0.2140468227424749,-2.3083929521289783,0.0000000000000000014789394783588534,0.000028460939225423525,0.00004929579276955884,0.000025011575288347367,-0.00004332131917684651
0.22073578595317725,-2.2893731212591533,0.0000000000000000013219637667075337,0.000030550129002087926,0.00005291437560935456,0.000027096632516035455,-0.00004693274423184073
0.22742474916387959,-2.2705257633293043,-0.000002295995794718663,-0.0003145369537358416,-0.00000000000000014661715067375109,0.0000000000000000016554871376353851,-0.000115956572705944
0.23411371237458195,-2.2517788835476753,-0.000004430361556264403,-0.0009024776019051116,-0.000000000000000024477792265157054,0.0000000000000000023130509789714593,-0.0003359102357985719
0.2408026755852843,-2.2332258155990488,-0.00002210103880781002,-0.0007149903858520201,-0.000000000000000004349319049343478,0.0000000000000000767254671637036,-0.00027660472261272786
0.24749163879598662,-2.214844973735693,0.0000000000000000005802317126366798,0.000038810271388133594,0.00006722136189976727,0.000037515751701263277,-0.00006497918803082195
0.25418060200668896,-2.196563134711126,0.00000000000000000039113949164053797,0.000040793545490985485,0.00007065649341110861,0.00004067498032979942,-0.00007045113252831134
0.2608695652173913,-2.178455392247348,0.00000000000000000019130088702249437,0.00004272156056646606,0.00007399591347952356,0.000044064905726872046,-0.00007632265554990408
0.26755852842809363,-2.160524312204024,-0.00002778074544017352,-0.000581124552405223,0.00000000000000006780216988590938,0.0000000000000000579444602002943,-0.0002480611920165948
0.27424749163879597,-2.1427797927805265,-0.00002854555450652083,-0.0005784371336877551,-0.000000000000000019814522597865808,0.000000000000000044493644587193717,-0.0002506451312764128
0.2809364548494983,-2.12511148417253,-0.0000000000000000004874263817212322,0.00004803014266151848,0.00008319064738442511,0.00005579496280158423,-0.00009663971037859537
0.28762541806020064,-2.107621910261375,-0.0000000000000000007162149131840126,0.000049603579409337186,0.00008591591977803026,0.00006024717087006845,-0.0001043511609589405
0.29431438127090304,-2.0903136785673957,-0.0000000000000000009190341484191288,0.0000510480683194006,0.00008841784797047967,0.00006497829096664168,-0.00011254570134197111
0.3010033444816054,-2.073173924499395,-0.00001694759016241617,-0.0005953323414261229,0.0000000000000001294509230583556,-0.00000000000000014602434463717128,-0.0002675342260525201
0.3076923076923077,-2.0561637149841663,0.00002072323084734027,-0.0006033686729541831,0.00000000000000003163572972713204,-0.00000000000000018178408667528795,-0.0002723574251861479
0.31438127090301005,-2.039334185292562,0.00004352050651020673,-0.0006123632205045304,-0.0000000000000002955242071821224,-0.0000000000000000612132425270808,-0.00027724718022746484
0.3210702341137124,-2.0226275258773394,-0.0000000000000000020471754546235396,0.00005523600599602409,0.00009567156879208411,0.00008695593697485156,-0.00015061210086035303
0.3277591973244147,-2.0061712243958367,-0.0000000000000000023398606605377508,0.000055783421095183,0.00009661971955623365,0.00009332981122241372,-0.0001616519748986952
0.33444816053511706,-1.9897973841564893,0.00004260028066606818,-0.0006444470173302249,0.00000000000000021062139517643032,0.0000000000000002010620045753093,-0.00029213362609224394
0.3411371237458194,-1.9736567932299647,0.000016589715131646913,-0.000656256960841583,0.000000000000000540115999829235,0.00000000000000039027842729825197,-0.0002969832658850755
0.34782608695652173,-1.957659901045843,-0.0000000000000000033865918862903253,0.00007444396142446123,0.00012894072350101878,-0.0012629003759845854,0.002187407616104537
0.35451505016722407,-1.941800204961897,-0.000000000000000003975676844042235,0.00008977685451848286,0.00015549807336917066,-0.0007877748508874515,0.0013644660666642583
0.3612040133779264,-1.926177811602962,-0.000028451707832954226,-0.000693694042668884,0.00000000000000020310172204768278,-0.000000000000000010014074332543039,-0.0003108243397050126
0.36789297658862874,-1.9107473693218375,0.00001592966311953839,-0.0007067640243801426,-0.00000000000000006560361618280272,0.00000000000000013916685215764383,-0.0003151395064046343
0.3745819397993311,-1.8953835450238572,-0.0000000000000000061305893455653786,0.00014518455533015268,0.0002514670263065391,-0.00047968973664841224,0.0008308469957450967
0.38127090301003347,-1.8802585142232822,-0.000000000000000007028622776774824,0.0001664158467645633,0.0002882407017821285,-0.0004289513343492658,0.0007429655050677393
0.3879598662207358,-1.8652335966486202,-0.00013562704335426008,-0.0007475780489873768,0.0000000000000004705214397149415,0.0000000000000004949275885737834,-0.0003274370598927545
0.39464882943143814,-1.8505688670891574,-0.00010820519737767914,-0.0007613521429765604,0.0000000000000008208262626770865,0.00000000000000010720051327476268,-0.0003311473115526463
0.4013377926421405,-1.8360494932891158,-0.000000000000000010330267934491554,0.00023604381677734597,0.0004088398834700992,-0.0003164452676666291,0.00054809928140918
0.4080267558528428,-1.8217022789030395,-0.000000000000000011531809039859931,0.00026075792662960304,0.0004516459773975792,-0.0002841680110260826,0.0004921934329766893
0.41471571906354515,-1.80755639553287,0.000017591248865944598,-0.0008035789679790451,-0.0000000000000009474479370129875,-0.0000000000000004639467130890912,-0.0003415032158875851
0.4214046822742475,-1.793689651257311,-0.0000134371596596078,-0.0008177550747889152,-0.0000000000000010966841670077365,0.000000000000000009070595280863925,-0.00034458067437242003
0.4280936454849498,-1.7799408675251833,-0.000058941453164439205,-0.0008320747132406804,-0.0000000000000004720639103186932,-0.000000000000000013268152247936906,-0.00034755466135895835
0.43478260869565216,-1.7663917008094907,-0.000000000000000016479539086814614,0.0004084108758651934,0.0007073883873647014,-0.0001649560737675815,0.0002857123007822256
0.4414715719063545,-1.7531840973573738,-0.00000000000000001819134872827725,0.0006924840564286703,0.0011994175691687741,-0.0001659861346378001,0.0002874964185442011
0.44816053511705684,-1.7401728686833977,-0.000056547696867059594,0.043105181177996665,0.00000000000000017562148642878252,0.0000000000000004799272608494642,-0.01870880661208107
0.45484949832775917,-1.727333799903076,-0.00016873834884838723,0.03087748776680413,0.0000000000000008565591919933344,0.00000000000000016857141468754557,-0.015422821821706817
0.46153846153846156,-1.7148454607917378,-0.00000000000000002399819402521108,0.0004105423914341418,0.0007110802806270605,-0.000057292865184625216,0.00009923415341038137
0.4682274247491639,-1.7026228466203388,-0.00000000000000002606431337186905,0.00048548710177572245,0.0008408883267010961,0.000013404105650397953,-0.000023216592017867708
0.47491638795986624,-1.6905774343869422,-0.00000000000000002827211388326802,0.0005083631939223993,0.0008805108805853476,0.00005105320456692758,-0.00008842674420070175
0.4816053511705686,-1.678986925546935,-0.0001813293003086641,0.024619951098099155,-0.0000000000000006874018756355614,0.0000000000000004793577758656498,-0.012674362501325425
0.4882943143812709,-1.6675437869268168,-0.0002948967532788093,0.0228230096422467,0.00000000000000019459049835043957,0.0000000000000008465730983172367,-0.011677141774890333
0.49498327759197325,-1.65649224143203,-0.00010185408193320704,0.02082889078844393,0.0000000000000016430050051260655,-0.00000000000000006560617106101318,-0.010587875520668224
0.5016722408026756,-1.6458277144860038,-0.00000000000000003592476149610435,0.000587149567173671,0.0010169728819864454,0.00021713009173283512,-0.0003760803507349117
0.5083612040133779,-1.6354177081976575,-0.00000000000000003694846249727564,0.000603783162163176,0.0010457831136229732,0.0002614135215110215,-0.0004527815010469206
0.5150501672240803,-1.6255340973521628,-0.00000000000000003797351142041144,0.0006184348234819984,0.0010711605354420345,0.00030666142156427585,-0.0005311531628736338
0.5217391304347826,-1.6159167311365332,-0.00000000000000003899924210663885,0.0006320840460378443,0.0010948016823908225,0.00035239713935016585,-0.0006103697497960296
0.5284280936454849,-1.6069444235658226,-0.000000000000000040109276039287623,0.0006435511399258528,0.0011146632716187966,0.00039824812017222506,-0.0006897859803263279
0.5351170568561873,-1.5983477997104234,-0.000000000000000041268408386596673,0.0006537473567987574,0.0011323236372867502,0.0004441662304653909,-0.0007693184837768419
0.5418060200668896,-1.5902732003071822,0.00007103672276823494,0.005658639243648968,-0.0000000000000023386771198371098,-0.00000000000000006109521993634079,-0.003215850680883315
0.5484949832775919,-1.5832998089051737,-0.00000000000000004246895496960885,0.0006688565407684447,0.0011584935115815948,0.000531042891547974,-0.0009197932731588793
0.5551839464882943,-1.5764196813480518,0.00010646147819474384,0.002335531388903248,-0.0000000000000006432047640948924,-0.0000000000000004333544372402758,-0.0017902290840633144
0.5618729096989966,-1.5706946974012674,-0.00000000000000004264819025056479,0.0007314534685128326,0.0012669145708311957,0.0005892889827738186,-0.001020678458504737
0.568561872909699,-1.566170581296303,-0.000000000000000042123984753724927,0.0008249189566888599,0.0014288015451056546,0.0005857148918218431,-0.001014487951384564
0.5752508361204013,-1.5616464651913384,-0.00000000000000004159977925688506,0.0009183844448648872,0.0015906885193801134,0.0005821408008698677,-0.0010082974442643911
0.5819397993311036,-1.557122349086374,-0.000000000000000041075573760045197,0.0010118499330409145,0.0017525754936545722,0.0005785667099178921,-0.0010021069371442184
0.5886287625418061,-1.5515719737952245,0.0008422126316494347,-0.0011053988299086304,-0.000000000000004826794649305113,0.0000000000000006386825689930517,-0.0003782255003544671
0.5953177257525084,-1.5421775049182287,0.00005850711074967187,-0.0011180881218204246,-0.000000000000003696504950846081,0.0000000000000014896766302216222,-0.0003786062804232273
0.6020066889632107,-1.5324977261979125,-0.00000000000000004092141061354325,0.0009841854643268379,0.001704659228283694,0.0008067237848470903,-0.0013972865830314534
0.6086956521739131,-1.5213791838846946,-0.00028901978819800085,-0.0011464945117870733,-0.0000000000000016180194155413701,0.000000000000000027318187220178957,-0.00037923570101642585
0.6153846153846154,-1.5099878721119235,-0.000000000000000039364093295849975,0.0006799545269197023,0.0011777157874637136,0.001101254805353725,-0.001907429274953929
0.6220735785953178,-1.4978846928162663,0.00018501101374593582,-0.0011792139410643143,-0.0000000000000009926184090380398,0.0000000000000016928366709180238,-0.00037951152623197316
0.6287625418060201,-1.484975762099571,-0.0002505808569783462,-0.0011975173067610052,0.0000000000000007887524553864647,0.000000000000003512132941723169,-0.0003794206356984733
0.6354515050167224,-1.4715559491730756,-0.000462149293508395,-0.0012167142945350862,0.0000000000000016843877335261039,0.0000000000000032249167321753788,-0.00037920547632743564
0.6421404682274248,-1.4575352786821025,0.00037618131547081804,-0.0012370213758613156,-0.0000000000000009430138716070024,-0.0000000000000021723012897841053,-0.00037881021424385875
0.6488294314381271,-1.4430907370933888,-0.000000000000000040236620759948346,0.0005559040753603275,0.0009628541026606,0.0020288459002710513,-0.0035140641799939506
0.6555183946488294,-1.4280969949460636,-0.000000000000000040712029788171875,0.0005078220637506492,0.0008795736156219254,0.0023551319412490304,-0.00407920818076884
0.6622073578595318,-1.412667179167506,-0.00000000000000004171267166459124,0.00045312408949157133,0.000784833945126741,0.0027722251922292613,-0.004801634882962667
0.6688963210702341,-1.3967991635560193,-0.00000000000000004309238005846009,0.0003934949391676001,0.000681553227152372,0.00332764292708185,-0.005763646619146818
0.6755852842809364,-1.3803944880673695,-0.00000000000000004434334331926789,0.0003343272008496294,0.0005790716982254283,0.004232253289825717,-0.007330477728471066
0.6822742474916388,-1.363496723636111,-0.00012820899252112016,-0.001379702043498354,-0.000000000000003737042816020662,-0.00000000000000034285911845311267,-0.0003712402863868235
0.6889632107023411,-1.3462507799939705,-0.000042954476792439036,-0.0014070491198947459,-0.000000000000003592878785714433,0.00000000000000026412587301082754,-0.0003689101107315737
0.6956521739130435,-1.3285540009989527,-0.00000000000000004471913085368979,0.0004095114718277405,0.0007092946754950871,0.023224075548580362,-0.04022527880895571
0.7023411371237458,-1.3104031358022925,-0.00011889379269673344,-0.001464986906321314,-0.0000000000000005591317500878885,0.0000000000000017323801688693715,-0.00036310079433077356
0.7090301003344481,-1.2918439008805576,-0.000046827233448003486,-0.0014956001000770382,-0.0000000000000017963316333009757,0.0000000000000015240823777852327,-0.0003595771211063027
0.7157190635451505,-1.272908246825758,0.00009875230382804879,-0.001527248186582954,-0.0000000000000015769415936348613,0.00000000000000007775108391391626,-0.0003556074163115273
0.7224080267558528,-1.2533622158169062,0.000029718129395631284,-0.0015603493814966367,0.0000000000000025498639665380173,-0.0000000000000013499356888684469,-0.0003511063335176211
