# n,energy,berry,bcd_x,bcd_y,qmd_x,qmd_y
0.00000022222222222222222,-3.25,0,0,0,0,0
0.006666666666666667,-3.202009954697928,-0.0000039463820782453605,0.000000000000000000014126907918499464,0.000000000000000000011896184612554013,0.000000000000000000007981275924383457,-0.000000000000000000010550016524330311
0.013333333333333334,-3.154675388034403,-0.000029800621730595012,-0.000000000000000000008928425728104904,0.00000000000000000006632461759974039,0.00000000000000000000810408787243192,-0.000000000000000000035486738298930895
0.02,-3.108055990356673,-0.00010055090477943438,0.00000000000000000007670542198018199,-0.0000000000000000002564212040349169,0.00000000000000000030716503840411096,-0.00000000000000000009517123125804745
0.02666666666666667,-3.0621074958407477,-0.0002415842888327755,-0.0000000000000000012529739899974773,0.0000000000000000004897022464179609,0.00000000000000000016502639416593136,-0.00000000000000000005620745050930341
0.03333333333333333,-3.0167481746377276,-0.0004815793603562969,0.000000000000000002363836728932682,0.0000000000000000029483658348514754,0.0000000000000000015364521142386788,0.00000000000000000008642542086642191
0.04,-2.972137010158603,-0.000855003897071959,-0.0000000000000000009149423926830155,0.00000000000000000014782345708105215,0.00000000000000000019442659441294131,-0.000000000000000002837211318681934
0.04666666666666667,-2.9281442189061,-0.0013933006758607017,0.000000000000000001284227163120112,0.000000000000000005867428325941207,0.00000000000000000003343251424805224,0.000000000000000001136687129437454
0.05333333333333334,-2.884768057379289,-0.002133870337771857,0.0000000000000000067378697817258955,0.00000000000000001603065378298094,-0.000000000000000001109256300325888,-0.00000000000000000718700664389794
0.06,-2.842077215001058,-0.003119172999832684,0.000000000000000004869197192329973,-0.000000000000000002327502266070794,-0.000000000000000005266558496881493,0.00000000000000000364381252000881
0.06666666666666667,-2.799995297819043,-0.00439449949991135,-0.000000000000000011338366135750797,-0.000000000000000012527462556313348,0.000000000000000001761566194625474,0.0000000000000000003076448119447178
0.07333333333333333,-2.7596622833552766,-0.0059596882872083356,0.000000000000000005021589934387552,0.00000000000000003598142801309929,0.000000000000000010717490911717702,0.0000000000000000041318677059667206
0.08,-2.7324671427751324,-0.007246862345786218,-0.000000000000000028189905852563155,0.00000000000000003337077033883446,0.000000000000000015866181436306306,-0.00000000000000000012768802570778994
0.08666666666666667,-2.7105195669919504,-0.008433141820660664,-0.00000000000000003871412516124257,0.000000000000000016795018716207202,0.0000000000000000007651407777790716,-0.000000000000000008132661321690392
0.09333333333333334,-2.688662532571052,-0.009753366261988038,-0.000000000000000023104117396882762,0.000000000000000022301530953273802,-0.000000000000000005766764441465518,0.000000000000000008388193468957524
0.1,-2.6669879413307327,-0.011219511410979544,-0.0000000000000000024042784564828588,-0.0000000000000000047731244328599644,0.0000000000000000067585480647983054,0.00000000000000000702175173149775
0.10666666666666667,-2.6455148916507665,-0.012842666394269365,0.00000000000000002660769915601768,-0.00000000000000002907668037921527,-0.000000000000000007952657115586905,-0.00000000000000000503465170955209
0.11333333333333333,-2.6241729647042464,-0.014632755676046086,0.00000000000000001973743525570686,-0.000000000000000004589238525471657,-0.00000000000000003707512088492535,0.00000000000000004070596886641717
0.12,-2.603028588945964,-0.01659467022793348,-0.000000000000000015146839542786936,-0.00000000000000002074392223054329,-0.000000000000000022546437534396817,0.000000000000000051525510319797756
0.12666666666666668,-2.5820363024619026,-0.01874394688233207,-0.00000000000000007230895308502319,-0.000000000000000043531635043458295,0.0000000000000000011834043130067363,0.000000000000000026596136541129585
0.13333333333333333,-2.561188062399622,-0.02109924357936126,-0.00000000000000009110428730580878,0.000000000000000006306317521224933,0.0000000000000000012508990861562497,0.000000000000000039391417842345444
0.14,-2.540520340674465,-0.02366949594538143,-0.00000000000000006769033754971637,0.00000000000000003369861112360178,-0.000000000000000002794092842669908,0.00000000000000005813674470159696
0.14666666666666667,-2.5199689584321563,-0.0264685393853825,-0.00000000000000009024703489110446,0.000000000000000003455372104227134,0.000000000000000023851859579636386,0.000000000000000040023051582467253
0.15333333333333332,-2.4996105929882626,-0.02951832464172496,-0.00000000000000001207982788289866,0.00000000000000017514965062701755,0.00000000000000013688388033053524,0.00000000000000003490395415204104
0.16,-2.479450198594325,-0.0328308285441681,0.00000000000000009574940121840454,0.00000000000000027199704850854306,0.000000000000000141846071039915,0.00000000000000002483045559783825
0.16666666666666666,-2.459362807775533,-0.036423700561437844,0.000000000000000004090397943148584,0.00000000000000001210002053412295,0.0000000000000000267456031741422,-0.00000000000000003224457211292183
0.17333333333333334,-2.439452513347937,-0.04031852544003133,-0.00000000000000008895873790698723,-0.00000000000000007026696224343106,0.00000000000000002814929518215289,-0.00000000000000004664769033946302
0.18,-2.4197738554271266,-0.04453014571209686,-0.00000000000000010016268187676793,-0.00000000000000005821510754001849,-0.0000000000000001313758383602893,-0.0000000000000000456800684282507
0.18666666666666668,-2.4001973854076475,-0.049100094900105716,0.000000000000000045675124856442094,0.0000000000000000791966068281147,-0.00000000000000009039915548921023,0.00000000000000006156607270116625
0.19333333333333333,-2.3808178790905705,-0.05400934650959586,-0.00000000000000013067730408704938,-0.00000000000000016371204518190995,0.00000000000000007831778074921878,0.0000000000000000983039180006232
0.2,-2.3615630242010814,-0.059366634643484094,-0.0000000000000003265750492439046,0.0000000000000002787779356513342,-0.000000000000000011053689257658608,-0.000000000000000024242688144520644
0.20666666666666667,-2.3425252784283943,-0.06516150167836646,0.00000000000000014713488324079215,-0.0000000000000003807097622604382,0.00000000000000017729561784204547,0.000000000000000009170963891521537
0.21333333333333335,-2.323587641750089,-0.07142040510146737,0.000000000000000005598052228891668,-0.00000000000000008461153764209222,-0.00000000000000012833598818252567,-0.00000000000000007996747603919451
0.22,-2.304853096683099,-0.07818690773791848,-0.00000000000000026854532531032866,-0.00000000000000009308277758722964,0.000000000000000038891645091327686,-0.00000000000000016975051783689072
0.22666666666666666,-2.286294014919873,-0.0854831816741536,-0.0000000000000001515932850734411,0.00000000000000003092969339625046,0.00000000000000023759482771359563,-0.000000000000000050729152215555116
0.23333333333333334,-2.267880307137041,-0.0933472472467551,-0.00000000000000010173893217250607,0.00000000000000012582142106746834,0.0000000000000002330374416114068,0.00000000000000008931550057654083
0.24,-2.2496207442233125,-0.10182626440504823,-0.00000000000000004475646914138501,0.000000000000000006093124444447939,0.0000000000000000895091468536885,0.00000000000000009390539499731743
0.24666666666666667,-2.23153314050506,-0.11096177307119844,0.0000000000000008402889029894257,0.00000000000000009306874851252615,-0.00000000000000010237654158544944,0.00000000000000013022869551481138
0.25333333333333335,-2.213564339319893,-0.12085061647976007,0.00000000000000013128070413329155,0.00000000000000003748000983966865,0.00000000000000010872393816563146,0.00000000000000022350871101906806
0.26,-2.195842126832151,-0.1316283058950725,0.0000000000000010001142251532339,-0.000000000000000004701805531903908,0.00000000000000011293501621900102,0.00000000000000023384391587890736
0.26666666666666666,-2.1783224697512953,-0.14323296218092044,0.0000000000000005054279963638314,-0.0000000000000007036284652974149,0.00000000000000010879056243182759,0.00000000000000012810708744942727
0.2733333333333333,-2.1609576540139908,-0.1557422044760748,0.0000000000000002320572680096205,-0.0000000000000008450394339258954,0.0000000000000001314584008172936,0.00000000000000009406775468497792
0.28,-2.1437282162724696,-0.1692369248150418,0.00000000000000023517224280004495,-0.00000000000000014934455711532603,0.00000000000000007352119116549536,0.00000000000000011210762132980787
0.2866666666666667,-2.126642190281935,-0.18378426437116585,-0.000000000000000461840344699554,0.0000000000000007428744887784992,-0.0000000000000002200674256055311,0.000000000000000046937058549674244
0.29333333333333333,-2.1098024237691835,-0.19967907744064578,-0.0000000000000002319705722509005,-0.0000000000000003758301456179883,-0.0000000000000005973445437809114,0.0000000000000001488112464600089
0.3,-2.093165768829524,-0.21699291603044887,0.00000000000000015405419956039828,0.00000000000000030536661183319707,-0.00000000000000028757647243134807,-0.00000000000000007863566122632695
0.30666666666666664,-2.1098819035433007,-0.03917370329322079,0.3160324271597135,-0.5458321602842587,4.012095130036988,-2.321680546267961
0.31333333333333335,-2.08967290606876,-0.03286324633195201,0.29063384231851236,-0.5020477979353545,4.875160074975407,-2.8205671364236156
0.32,-2.0679166854877,-0.027274879059662988,0.2691415383271101,-0.4628886960688194,5.786654010809165,-3.3487115536508276
0.32666666666666666,-2.045872958556121,-0.022951691235626542,0.25537829964540043,-0.43254384806992274,6.679889441217395,-3.8682385291211867
0.3333333333333333,-2.0253705378182225,-0.02061598368594301,0.255052886823588,-0.43141926602348857,7.493869363119465,-4.357899434615636
0.34,-2.004552388527195,-0.031800865426532876,0.3096382396595903,-0.5229651549855463,8.478950140224388,-4.985538471965211
0.3466666666666667,-1.983237030796864,-0.08959747528232037,0.6587656479979258,-1.1671975959737586,10.4344677934281,-6.067115749798316
0.35333333333333333,-1.9619680757651112,-0.5666259766462187,7.811767460299119,-16.416581331760362,20.203398950315368,-10.499946735762041
0.36,-1.9430944820163853,-0.6938394521767761,6.924414149033852,-15.207529677023732,23.418253743510864,-11.800251575345005
0.36666666666666664,-1.9265610540140596,-0.12752703259844714,-4.268017244909965,8.052695247443797,12.404970480362152,-6.427137906375276
0.37333333333333335,-1.9106325306563476,0.13932186434561863,-0.9135148627006555,1.730931426459791,3.2526110239153296,-1.4916112959182846
0.38,-1.894430799505017,0.1974610585546011,-0.4962442502559655,0.9223746345547156,0.3902225814416118,0.05054546317139308
0.38666666666666666,-1.8773262462179876,0.23944194532438035,-0.30103234260609385,0.5392735860248827,-1.3763514030655823,0.9366389962658016
0.3933333333333333,-1.8610028977289417,0.26735218139822087,-0.21552967546870783,0.3752266922305886,-2.367988437930888,1.4302449350997635
0.4,-1.8456853620807312,0.2884633963847758,-0.16741273678256052,0.28811065947248937,-2.94914376848066,1.7350818952226343
0.4066666666666667,-1.8639415674964974,1.193018964014498,-0.0008059911645960944,-0.002713614923129215,-0.041046284560349144,-0.019185654295806272
0.41333333333333333,-1.8500649127184576,1.2900506729156305,-0.0009415351103968884,-0.002956659284360505,-0.04213475887093572,-0.02095785754341808
0.42,-1.8388751596360804,1.3729170878144223,-0.0010741868810083763,-0.003111521547422807,-0.04347247355282889,-0.02283346953156993
0.4266666666666667,-1.8285371573834455,1.4747738340511678,-0.0012044713749968562,-0.0032420811046569627,-0.04485350326458502,-0.024690306014324887
0.43333333333333335,-1.8200715540763635,1.6183769163421304,-0.0013295518984132192,-0.003319216163578071,-0.0463297521571273,-0.026505868411655083
0.44,-1.8116059507692814,1.761979998633093,-0.0014546324218295825,-0.0033963512224991794,-0.047806001049669575,-0.028321430808985276
0.44666666666666666,-1.8028599499319633,1.911338990568183,-0.0016127951423593934,-0.003438887507632805,-0.049905321626981115,-0.030639826423456286
0.4533333333333333,-1.7940714939706082,2.061569487532867,-0.0017759668541619945,-0.0034761851758947516,-0.05209898178580924,-0.03303435625560607
0.46,-1.7832970186976196,2.185844184102815,-0.003176730066199494,-0.002856606498031599,-0.05075814253470397,-0.030267501672312715
0.4666666666666667,-1.7706456304882687,2.2855890197347777,-0.005747094944805076,-0.0016162384328696092,-0.04607697943719428,-0.02262281477281883
0.47333333333333333,-1.7568686083661154,2.3798924208014314,-0.005225686677073505,-0.002324460942236834,-0.05119864896663966,-0.029108273944747652
0.48,-1.7425387986604592,2.4735374181684997,-0.00468161261805679,-0.0029564040740177656,-0.05991597275244598,-0.037002946272215
0.4866666666666667,-1.727593748962873,2.5673347167308895,-0.004761069033131548,-0.003050527234848845,-0.07203186281355019,-0.04403848577329989
0.49333333333333335,-1.7123162425640202,2.662094998594619,-0.004861364450130639,-0.00253529994192557,-0.07780084967996002,-0.048517798466398254
0.5,-1.6969252638347778,2.7584685928429598,-0.005051059983277579,-0.0018357093731653914,-0.0811357553290429,-0.05195727419915908
0.5066666666666667,-1.6814447150598877,2.856989505424622,-0.005347004473594281,-0.0009758905281456321,-0.08242407443365779,-0.05448105269267681
0.5133333333333333,-1.6658997796073238,2.9583242457054686,-0.005771191507741543,0.000020475584081698422,-0.08205918267418828,-0.0562086458945875
0.52,-1.650348328462621,3.06592624764538,-0.00639818288083477,0.0012167784191999475,-0.0799564243669516,-0.056960014159076124
0.5266666666666666,-1.6348191340806144,3.178466368224995,-0.007164319965479971,0.002583568761111928,-0.07684024704328951,-0.0570419192259876
0.5333333333333333,-1.619340242839472,3.2968773822953845,-0.00807767478478791,0.0041483899328546734,-0.07275883185349451,-0.05645213577645953
0.54,-1.6039429871656088,3.422310588735764,-0.009150712923832786,0.005945458854552355,-0.06773678513538425,-0.05517179218901133
0.5466666666666666,-1.5886740241921224,3.559220978961936,-0.010663821038751749,0.008299562760087226,-0.06130040598137254,-0.05297255425047053
0.5533333333333333,-1.5735426150981993,3.707110984380804,-0.013750943471673157,0.011892918869334822,-0.05357384621284276,-0.05095191489479284
0.56,-1.5585606167140038,3.866119588246999,-0.013838005218436632,0.014058203203428947,-0.04351730972468666,-0.04493466409471819
0.5666666666666667,-1.5437849540901245,4.039180182987883,-0.0018101088060228383,0.0095560181414127,-0.028670949897874037,-0.0262972185234788
0.5733333333333334,-1.5294022474308118,4.22899190644656,-0.0004278757911563872,0.009464651171113508,-0.005891698036478047,-0.012752875071701468
0.58,-1.515413451302899,4.419501739060515,-0.0013695972394664668,0.010161011684989604,0.0023902644206199386,-0.001814019436276263
0.5866666666666667,-1.5019082327033342,4.606472898408568,-0.00288429983897042,0.010831906682353853,-0.013256768810772342,0.006609077983990821
0.5933333333333334,-1.4855357838581529,4.574594404128967,-0.011013456105129686,0.015307622254082314,6.633256543084563,-9.345042493941875
0.6,-1.4682869664934621,4.422651650031338,-0.009606069122907296,0.014771258785955674,4.482434621915494,-6.057330278142311
0.6066666666666667,-1.451168723183708,4.2144950308632145,-0.005855253154073484,0.012968226089241112,0.23304207025655316,0.10626504382543853
0.6133333333333333,-1.4347028125563654,3.993975874805886,-0.006476379218953918,0.01342115057928684,0.19003316465651066,0.09403149338576855
0.62,-1.4189583707542095,3.7577227556152293,-0.0069726117900463565,0.013682505962789308,0.1762520674380746,0.08657143790967085
0.6266666666666667,-1.4041558288979654,3.4984177940306123,-0.007259425423634366,0.0136921111371808,0.17021825616504943,0.08275437634701743
0.6333333333333333,-1.3900512401186496,3.2177233314118934,-0.007406473847159109,0.013554577856354716,0.1664538899976269,0.08018532225898234
0.64,-1.3765612833112653,2.917508690988456,-0.007432890213690286,0.013293730002903497,0.16413676759652499,0.0784847839455118
0.6466666666666666,-1.364656980259844,2.546293748602799,-0.00726817508180576,0.012884099056328466,0.16265701975987515,0.07737159811715529
0.6533333333333333,-1.3532110315236365,2.1640535207684777,-0.007066322441875396,0.012455728113940233,0.16124077666409256,0.07631202101085643
0.66,-1.4069563261110323,0.4864103174557386,-2.801497204977478,4.852507011519489,-7.74052763026776,4.699627232996997
0.6666666666666666,-1.405945034016089,2.269993361984324,-1.4149337381727345,-0.10837647257486431,0.2940099126876535,1.5788706002580402
0.6733333333333333,-1.3899959031873972,2.3108359143552972,-0.8445386310209927,-0.08947271397561148,0.2233486825591945,0.7161273856147838
0.68,-1.3719477951765118,2.394177500353969,-0.14512569574656442,-0.07440169724093831,0.17744107467177261,-0.12102232048680961
0.6866666666666666,-1.3509545703391448,2.465229737556643,0.6976338920843016,-0.05076963520478207,0.1449470710667788,-0.9531531625929999
0.6933333333333334,-1.3279413546737981,2.5258294977261144,0.81277041930059,-0.04667867807772171,0.09324121874151149,-0.5059085137728794
0.7,-1.3000890442229578,2.4289036698797886,-0.3985538396740516,-0.032418890649327535,0.06328348862473275,0.31851226345208644
0.7066666666666667,-1.2693967206898529,2.060553677736999,-0.5655289200835372,-0.020771685651216745,0.04040506234560653,-0.1443300236870735
0.7133333333333334,-1.2416760969732643,1.7443053214286832,-0.7152493689019985,-0.013543695316455941,0.027217811397091365,-0.3954407192785282
0.72,-1.216578552592071,1.4759023703661005,-0.8645161373407213,-0.008582258613221781,0.018551233586218446,-0.5117977171014106
0.7266666666666667,-1.1941915425118212,1.2422645716313527,-0.9982466139280735,-0.005128922618495662,0.012577628400110109,-0.5478514687025594
0.7333333333333333,-1.1755776333457162,1.0153036252487033,-1.0862649496041523,-0.002807529103069645,0.00837433491521067,-0.5372383303138547
0.74,-1.158042113665186,0.8335058539549013,-1.2965182377668405,-0.0009670483898401333,0.004730624698895921,-0.41883725578070014
0.7466666666666667,-1.171068544442307,2.4879900649149103,-0.002157558003843401,-0.010469373551978025,0.033998400542985655,0.007809961729468523
0.7533333333333333,-1.1485004634119356,2.4166163534016345,-0.0030829165645058464,-0.008474386669985085,0.030195699490657077,0.00824283705343745
0.76,-1.1267117003044578,2.295811608558783,-0.0037192432221712706,-0.0067645587061370615,0.025763796421091535,0.007898561856876938
0.7666666666666667,-1.1064059738829866,2.098794384353489,-0.004074014215914044,-0.005393291430223179,0.021506970950052846,0.00722673863424057
0.7733333333333333,-1.1175498331699962,1.3021475174823112,-0.0012562145515006434,-0.0000000000000008604414165162553,-0.0000000000000015874350149895022,-0.0001561006176812952
0.78,-1.0952401813579764,1.3246206778118719,-0.0012775699881604889,-0.000000000000004658152231669642,0.0000000000000013929169010186596,-0.00014669261430641956
0.7866666666666666,-1.0724550654398106,1.346332504477617,-0.0012987781623276227,-0.000000000000002040342095356327,0.0000000000000014543682737554661,-0.00013672494799369875
0.7933333333333333,-1.0492857204766284,1.3670288826824792,-0.0013196325066217379,-0.0000000000000011684300754774229,-0.00000000000000012436560769965783,-0.00012623604576256746
0.8,-1.02558088965126,1.3871539251933915,-0.0013400172271193966,-0.000000000000007543027364632445,0.0000000000000011870475971146303,-0.00011511323838296268
0.8066666666666666,-1.001406347943654,1.4068462352108029,-0.001359832971907849,-0.0000000000000008873340574127767,-0.0000000000000007024220318982533,-0.0001034384006287036
0.8133333333333334,-0.9768093025962115,1.426027269325539,-0.0013788021164763881,0.0000000000000026321631299619603,0.0000000000000006498347061448956,-0.00009124141892064519
0.82,-0.951866162111878,1.444668307158546,-0.0013967145112441745,-0.0000000000000057447858487400416,-0.0000000000000003983031265182624,-0.00007858398126862056
