# n,energy,berry,bcd_x,bcd_y,qmd_x,qmd_y
0.00000022222222222222224,-3.3284385443435496,-0.000000056320314298481386,0,0,0,0
0.006666666666666667,-3.2813520767658284,-0.0017239024707625976,-0.000000009592381462562677,0.000000007636443642329496,-0.0000000031480747566281914,0.0000000045987300671595106
0.013333333333333334,-3.2350240939601256,-0.0034922724887676594,-0.00000001786353069812245,0.000000009254728835739331,-0.0000000032585101035150484,0.000000012714721873928753
0.02,-3.189435879456245,-0.005274446607061114,-0.000000017524820981345653,0.000000011860324059794515,-0.00000000815059133579492,0.000000021990780489089355
0.02666666666666667,-3.144598676601273,-0.00704171610279942,-0.000000017732192992884763,0.000000013982525293773907,-0.000000012432025777578515,0.00000003921629043264851
0.03333333333333333,-3.1004781543864826,-0.008768681191781454,-0.00000001314696742228341,0.000000015991164509347887,-0.000000026650575953935607,0.00000005964213917919187
0.04,-3.0571517809312287,-0.01043141278228285,-0.000000009612506588135265,0.00000001754711062397161,-0.000000033706658324636735,0.00000010688672064131367
0.04666666666666667,-3.0145027947354173,-0.012017160755027814,-0.000001381380316758795,-0.00000004262623695923459,-0.00001642673400827212,-0.000641933039486885
0.05333333333333334,-2.9726794630943743,-0.013512396736787701,0.00007777907932399974,0.00006883215630522578,0.00011963349015891012,-0.0003508724392425808
0.06,-2.9315370417898556,-0.014922972717092734,0.00015834502448039658,0.00014753224210662421,0.00019160847332674703,-0.0003547013770070776
0.06666666666666667,-2.89119273923676,-0.016274053974931865,0.00025701362434991736,0.0002488518401303853,0.00025821215694493905,-0.00038661798851474636
0.07333333333333333,-2.851633314294394,-0.017594289015729916,0.00038214421258774944,0.000381270459204828,0.000292775561712661,-0.0003882265251960049
0.08,-2.8128745733453444,-0.018993213229735063,0.0005400777190388038,0.0005533128487411978,0.000227248236419877,-0.0002999421315448469
0.08666666666666667,-2.774999946820026,-0.02062935975554359,0.0007289883761260484,0.0007656024938929136,-0.00005485123358628606,-0.000042610590815587575
0.09333333333333334,-2.7400302219178125,-0.022502816891345808,0.0009304206381546424,0.0010004441050328193,-0.0006816816928082957,0.00045000481562525613
0.1,-2.7186820344482796,-0.023253592138778412,0.0010624044144670886,0.001162045654293891,-0.0013728967880696863,0.0009470438851319595
0.10666666666666667,-2.69852606246955,-0.02429174051587192,0.0011888457882078844,0.0013230768502444927,-0.0023282441973384725,0.0015932668114780528
0.11333333333333333,-2.678691047170094,-0.02593273874461098,0.001309221249742932,0.001486576001330805,-0.003674525681734312,0.0024527264940928783
0.12,-2.6591492213615875,-0.028524900052912815,0.0014159467317565863,0.0016459840435811667,-0.005542273092187661,0.0035750261994434707
0.12666666666666668,-2.639914274289379,-0.032470946917068116,0.001501959177734567,0.0017934117364123239,-0.00800727967080873,0.004972108183424571
0.13333333333333333,-2.6210671517257467,-0.03841748123556438,0.0015595394741951321,0.001920666331615285,-0.011144534510012046,0.006646231790059689
0.14,-2.602717647693556,-0.04737804293730389,0.0015805402149094952,0.0020207268420102337,-0.014979745603250763,0.008565497360966174
0.14666666666666667,-2.5850002355056283,-0.06097013952509279,0.0015517586652564453,0.0020914706489798735,-0.019467789822334092,0.010658447141756266
0.15333333333333332,-2.5681250693345743,-0.08147709611165835,0.0014671218786590974,0.002133452381590849,-0.0244650734245504,0.012832488924510867
0.16,-2.5534726420492118,-0.12061434067237917,0.001333975533634007,0.0021297346490502687,-0.029581349846860613,0.014897307936848759
0.16666666666666666,-2.53722180390039,-0.15194522149154302,0.0011915340738900934,0.0020814668522476714,-0.035884541740591254,0.017395621373272396
0.17333333333333334,-2.519135988171277,-0.1741710172785085,0.0010138766140981043,0.0019812600579219228,-0.043551261600873206,0.020308570812467334
0.18,-2.499175782410589,-0.18698469225027467,0.0007707724597037647,0.0018203562502810868,-0.05260575330136054,0.02349505061214185
0.18666666666666668,-2.4777855935247324,-0.1929360604777685,0.0004839815837293001,0.0015939172941401474,-0.06267058617184763,0.026685495522827483
0.19333333333333333,-2.455077569719264,-0.1929679008397688,0.00017872002721192723,0.001312744997928184,-0.07349323533376302,0.029583789540299082
0.2,-2.4311583512719057,-0.18754121448169536,-0.00034020828143275573,0.0009306540306596221,-0.08511263593253839,0.031508686792464456
0.20666666666666667,-2.4060701429943343,-0.17698320425483638,-0.000747089627496582,0.0005903034906578698,-0.09648975754307174,0.03327067788696451
0.21333333333333335,-2.379896532673924,-0.1615656350875623,-0.0007531552498966376,0.00037458110212861684,-0.10730978646953743,0.03543257558897903
0.22,-2.353823603753793,-0.13321324796072595,-0.000840667780860997,0.00010726337191984875,-0.11907576872658844,0.03713911601200189
0.22666666666666666,-2.3359034693704843,-0.05094989386941892,-0.0009006105060631243,-0.00002023602890893361,-0.12755863374231718,0.038532153015521646
0.23333333333333334,-2.318555610271591,0.02645842383790248,-0.0009509939367123236,-0.00012253350517519958,-0.13721795087073949,0.040095334948305646
0.24,-2.3014056045976843,0.09772274840131709,0.0008099621519938203,-0.000059031474298489845,-0.1620047274328447,0.05010592043640124
0.24666666666666667,-2.284451675273559,0.16424106818630715,0.003653796166320095,0.00009004397337916555,-0.20025743633790888,0.06716196859883088
0.25333333333333335,-2.2677441072303854,0.22693703162419943,0.0022257345669913706,-0.00017526056921118686,-0.22410459259476137,0.07308180136864771
0.26,-2.2513233583165775,0.2865143007175326,0.0015082377985394075,-0.00014701107163612418,-0.25269685245438933,0.08344134959062977
0.26666666666666666,-2.235126147958506,0.3444543242357788,0.0011053301866690065,0.00003191749569311356,-0.28899262318794017,0.10318439599413705
0.2733333333333333,-2.219147362864988,0.4011069431713567,0.001101475515000368,0.00042682933095407284,-0.32405009204559604,0.17442597421163616
0.28,-2.203438375621304,0.4565686452930428,0.0019069878227835413,0.001283107862836804,-0.3352826699615395,0.4062754751643533
0.2866666666666667,-2.1880711246583893,0.5082850193229738,0.03309774474523557,0.03526099571306802,-66.16854593421427,-45.99063550538963
0.29333333333333333,-2.173192149470153,0.5512323158410016,0.03935704620997014,0.04274113025875559,-80.74887157999123,-56.460281992120656
0.3,-2.158894616353072,0.5830990796232114,0.003164215730610563,0.00488132908921813,-7.162197026871766,-4.996216998187748
0.30666666666666664,-2.146436406818111,0.6218777966549079,-0.00041082799520145245,0.0009490925378777271,-0.1404837854859401,-0.011932647991519732
0.31333333333333335,-2.1342040257790655,0.6640872667462118,-0.0004829203897321235,0.0005602206037542901,-0.17486279443823716,0.028829475080410328
0.32,-2.122165808228851,0.7234630482566435,-0.00030601956567554594,-0.00020780171117710427,-0.12806031981847027,0.021109329995523438
0.32666666666666666,-2.1100663056186852,0.7876166174212099,-0.00014833516536673784,-0.0008897157142169894,-0.09256208933637566,0.015350676253048711
0.3333333333333333,-2.0978448923930486,0.8612743468814268,-0.000028876819631512454,-0.0014003397273602896,-0.07955069922539437,0.013493897078122518
0.34,-2.0858282798982493,0.941490970896365,0.00008066617508158296,-0.001848258412801016,-0.07151380794962788,0.012260184217516035
0.3466666666666667,-2.0739723864492268,1.0268547409682556,0.00018242801711855592,-0.0022469685803212978,-0.06738069525291544,0.011515427734575773
0.35333333333333333,-2.0626262371475192,1.1217001583104707,0.00026958048290998886,-0.0026016361985545054,-0.06524983917973502,0.01104173542265387
0.36,-2.051467318513658,1.2200282152475785,0.0003513668777309643,-0.002940126846517236,-0.06385441841620525,0.010667605854191105
0.36666666666666664,-2.041282468023858,1.3327434227643324,0.0004088676338311997,-0.003240761504418878,-0.06313330493470139,0.010354519165864476
0.37333333333333335,-2.0313593628181383,1.4493246522206573,0.0004598425103563875,-0.003531223745808293,-0.06259338693953741,0.010057835525004014
0.38,-2.0234292276668193,1.5950676437327451,0.0004901549602618577,-0.0037623428478179444,-0.06223012581207953,0.00981512857787189
0.38666666666666666,-2.016811031069359,1.7600073310782363,0.0005068656834184355,-0.003954397362636529,-0.061983154919407576,0.009607953577321535
0.3933333333333333,-2.010192834471899,1.9249470184237274,0.0005235764065750132,-0.0041464518774551136,-0.06173618402673563,0.009400778576771178
0.4,-2.0030717756617475,2.0808003142525893,0.0005373033497138558,-0.0043543229948671954,-0.061459246603013565,0.00914984267575415
0.4066666666666667,-1.9949142049438042,2.217924517363497,0.0005448800524079783,-0.0045947956808903585,-0.061120541431616805,0.008808705734999702
0.41333333333333333,-1.986756634225861,2.3550487204744046,0.0005524567551021009,-0.0048352683669135215,-0.06078183626022004,0.008467568794245251
0.42,-1.9764056584292946,2.4912517801521687,0.0005155649907833748,-0.005145278638114435,-0.06034784455752251,0.007955335309497734
0.4266666666666667,-1.964967330252175,2.6269981948104517,0.00045662855540174016,-0.005489761273548406,-0.059866615781447925,0.007358282911805951
0.43333333333333335,-1.9518980396238572,2.7676479662151876,0.0003128878917139016,-0.005882561278992056,-0.05925961533161931,0.0065842055232230795
0.44,-1.9380278736937016,2.9115925187432654,0.00011236590219688088,-0.0062979846595052355,-0.0586066131197115,0.005710222653935735
0.44666666666666666,-1.9226144256375706,3.0644339097502566,-0.0002410569060028452,-0.006753836078604874,-0.05791022749260005,0.004606444251211293
0.4533333333333333,-1.905842424111799,3.228329453751203,-0.0007923597368294781,-0.007243584540945268,-0.05723331426752137,0.003279712858482745
0.46,-1.8877225327788067,3.405176446199487,-0.0015932708763240321,-0.007749457678497433,-0.05654495768757139,0.0017588594029240173
0.4666666666666667,-1.8680009322271598,3.60013806404656,-0.0027728191386739535,-0.008257867329146214,-0.05582446689729267,0.000036018064842556854
0.47333333333333333,-1.8464491633362903,3.8204144998866902,-0.004528732996580201,-0.008769823611152073,-0.05514572374094588,-0.0018912140269738754
0.48,-1.8227600628056482,4.076409764202396,-0.007240036354039165,-0.00930202368522856,-0.05474380930037883,-0.004113364551747506
0.4866666666666667,-1.796438260209568,4.383594503434771,-0.011682450083856655,-0.009856396990191505,-0.05574409937212059,-0.007868534932434251
0.49333333333333335,-1.763899512232926,4.8129072276427465,-0.024263340983394256,-0.010543461244983156,-0.06857342329948692,-0.010298883212320429
0.5,-1.7279603302299484,5.387052023587833,-0.008969954597163168,-0.0011837858295079134,-0.04899302639278122,0.0010572529695174228
0.5066666666666667,-1.6840545513060894,6.015388800864586,-0.0020687271699224817,0.003274918501515443,-0.055975550825073536,0.005362494563893859
0.5133333333333333,-1.640936580804079,5.876851838992368,-0.004359131353859117,0.005739959047618566,-0.06565589515643852,0.004298526706917704
0.52,-1.615744170104053,5.734238026033345,-0.006138433090907977,0.0072218461253040975,-0.06939257275815075,0.003436408985558149
0.5266666666666666,-1.592244700730358,5.595689056728375,-0.01380595034202721,0.0077554685416161345,-0.04243417321054219,0.009796302879591998
0.5333333333333333,-1.570089447848443,5.456715640345547,-0.01332411482161661,0.0095893455643895,-0.04796542237698736,0.005372113154070391
0.54,-1.5491490319632824,5.3142109972925216,-0.015270906900389998,0.01105493204951281,-0.046259859018881855,0.0035683470402642216
0.5466666666666666,-1.5292813036094568,5.16485839600046,-0.017705847960642045,0.012305234369484002,-0.0425757556376212,0.0021338326332143494
0.5533333333333333,-1.510571637540021,5.003277746356562,-0.020313806586205796,0.01337240417852556,-0.03766343618310446,0.0009794214346426973
0.56,-1.492872932253738,4.824907995001203,-0.022790957312590496,0.014207831934065853,-0.031852969504176355,0.0000783192173350126
0.5666666666666667,-1.4761823815494957,4.622132408679933,-0.025027651824501028,0.014852285387988837,-0.025628553812845567,-0.0006064417702273293
0.5733333333333334,-1.460608669266315,4.379066726496548,-0.02699768467104972,0.015350524780014505,-0.01933695904704304,-0.0010936313502107342
0.58,-1.4468833994749666,4.0491470761602795,-0.028586741508671378,0.015702571579034107,-0.013374052960746136,-0.0013100043033860548
0.5866666666666667,-1.4328834464843136,3.781942712281231,-0.0293651591479173,0.015757609709425625,-0.007052647977676512,-0.0012963449367243555
0.5933333333333334,-1.4186853360570888,3.559010546965573,-0.02967887430159642,0.015640427435467254,-0.0004268849868789942,-0.0011807156820105582
0.6,-1.4041240887597584,3.411085968931081,-0.029898577368700947,0.015472853460727562,0.00704514409650876,-0.0012817947027096792
0.6066666666666667,-1.3896402115587638,3.2834538616955595,-0.02982382493248281,0.015209649423383584,0.015960453338281964,-0.0016811150274011963
0.6133333333333333,-1.375263659698854,3.169158840635877,-0.02951298441522585,0.014866281190568565,0.026617057653752108,-0.0024206676099669186
0.62,-1.3613341273270987,3.061676899291827,-0.028785983143958884,0.014361736673953742,0.0436682526465165,-0.004335544940920787
0.6266666666666667,-1.348310202452848,2.9368913703949526,-0.028571574957624468,0.013428417422609846,0.06483449698594139,-0.005497554203900814
0.6333333333333333,-1.3359932190438855,2.798598197653426,-0.02875731066095249,0.012160385130480325,0.0892130590489697,-0.006071854490741728
0.64,-1.3225514894115715,2.65177758520048,-0.027763062611687872,0.010962577423676633,0.06931897216954121,0.014976838039610793
0.6466666666666666,-1.3085066740672202,2.5020138793142572,-0.02747349659623098,0.009161979751850617,0.25431369312058416,0.5497444576177081
0.6533333333333333,-1.2933188623943441,2.3493341274704282,-0.030704416079687335,0.0051726278734051815,1.2011411523818116,2.8784768547005606
0.66,-1.2776096698387553,2.2010102020115054,-0.027496249852170234,0.00500598407493685,0.5992842843620593,0.8968166914596787
0.6666666666666666,-1.2618875455141494,2.053996759870988,-0.023073934479291243,0.005624728138342539,0.08633614184444642,-0.6459325864284704
0.6733333333333333,-1.2463467818193648,1.9067741144682508,-0.01933575957656218,0.005930682058820581,0.23589541425371066,-0.08707880578082126
0.68,-1.2312670571737865,1.7454798735542643,-0.017279183825259163,0.005423539149592738,0.21513738420240014,-0.05738416272110959
0.6866666666666666,-1.2165216145861022,1.572700607999111,-0.015364896305924594,0.004967055077846376,0.19788903514609782,-0.04142979224118435
0.6933333333333334,-1.2020912159383497,1.389411864039694,-0.013563077591460805,0.004560869327947217,0.18343082502081964,-0.0353249364925355
0.7,-1.1884382511194571,1.1822777096829105,-0.01189516799403428,0.0042957697554104855,0.17242119430996575,-0.03294137862376823
0.7066666666666667,-1.1754416629564919,0.9559767555761509,-0.010312232342461279,0.0041333643242984245,0.1627743504124088,-0.03116319886502222
0.7133333333333334,-1.163073863238619,0.7113146027531596,-0.008810699091177958,0.0040693366903297775,0.1544330139450552,-0.029964952528733633
0.72,-1.152948600713687,0.41787232544652475,-0.007563062269732291,0.00413817831982514,0.14794029216644336,-0.02906464469736582
0.7266666666666667,-1.1435412461350096,0.10881396868472415,-0.006396705823515149,0.004249555654125812,0.1420393711297718,-0.028259716519388463
0.7333333333333333,-1.1338991953232538,-0.21879608222399988,-0.005179929030036807,0.0044719854446101485,0.13606778721547086,-0.02741311749739043
0.74,-1.1239732132407199,-0.5688496381908587,-0.003902154609612487,0.0048287644941074955,0.13001071662599406,-0.02651610583969736
0.7466666666666667,-1.112747811914007,-0.9107200665985785,-0.002408774397260908,0.005351299740553126,0.12308816973792003,-0.025388614394161523
0.7533333333333333,-1.097973250562149,-1.230239564508942,-0.00032650075322741227,0.00632657206224557,0.11380170997457294,-0.023631603528099926
0.76,-1.0803996937963591,-1.538180653638164,0.00240508337543266,0.008130948087135692,0.10252143425654771,-0.021025569722453816
0.7666666666666667,-1.0610925069001975,-1.8540121620314858,0.0018737970171879956,0.010109512390572315,0.08912706438597216,-0.015445988415631197
0.7733333333333333,-1.034027585159439,-1.9399850063934,0.0018015741978233478,0.011299326695434684,0.07941177077953677,-0.01196412798242595
0.78,-1.0014956279533886,-1.8097905145404978,0.004072160721557586,0.01190574671518328,0.07452974433524374,-0.011711146450549477
0.7866666666666666,-0.9702766304277708,-1.6737959277948187,0.006441751323197834,0.012663590733222973,0.07019216431205937,-0.01141910777040045
0.7933333333333333,-0.9404268899634421,-1.5311777909049287,0.009092377226425592,0.0136095390435681,0.06637719580083871,-0.010917045589589586
0.8,-0.9119568788276777,-1.3813119766524182,0.012264803924585194,0.014806835095979567,0.06286305961104478,-0.01012645731016271
0.8066666666666666,-0.8848725584296552,-1.2235419983117237,0.016151336713858565,0.01629810679701889,0.05956822107150558,-0.008814608466691982
0.8133333333333334,-0.8592792152050533,-1.0552613140338252,0.02119306838747676,0.01814398922835339,0.056276238707704616,-0.006681640585827554
0.82,-0.8354446932859141,-0.8725757421265251,0.02808149281473213,0.02048337844039498,0.05311973493754455,-0.0030468025609552596
0.8266666666666667,-0.813753841595449,-0.6674280972815528,0.039301118067549816,0.023874172105089755,0.05096888984739521,0.003960249209262644
0.8333333333333334,-0.7961412938800857,-0.4063782769425425,0.0881333677605732,0.04007828017714264,0.06500154877531944,0.03547555846330741
0.84,-0.7770027571407743,-0.19047243859822335,0.04383831986193369,0.028497549773592017,0.04248635939152648,0.007717354691076324
0.8466666666666667,-0.7560389245171609,-0.02358290620232728,0.01643775770340469,0.02101212710263248,0.024765048874965834,-0.007988991282340034
0.8533333333333334,-0.7336742981643657,0.1068614029039552,0.018154673506698984,0.021368859574553808,0.017801282187710567,-0.0036978184705811256
0.86,-0.7103678944799944,0.2146104704699412,0.018623840036127205,0.02078784339326556,0.01162953651363284,0.0006602317590898403
0.8666666666666667,-0.6863579309301004,0.3073665675620197,0.017628271778195738,0.01922040857123352,0.006909977270446231,0.004374165410352797
0.8733333333333333,-0.6618119860780008,0.3914469289010003,0.01534728698768151,0.016860832920875958,0.0038097723914000945,0.006979406868917346
0.88,-0.6367968184303631,0.47022974363331577,0.012196373145864838,0.014061435428428139,0.002169401365236925,0.008281577943922357
0.8866666666666667,-0.6115123057598413,0.5480368370236921,0.008811842774061742,0.011239975444816514,0.0014006911242375418,0.008625357936288155
0.8933333333333333,-0.5860474564413746,0.6273945771702458,0.005574494155942613,0.008642312388893498,0.0011078042613523896,0.00837048242958695
0.9,-0.560642901282089,0.7104647430060209,0.0027064995337648,0.0064001179839531745,0.0010418396631406285,0.007822474850629766
0.9066666666666666,-0.5354754931647359,0.7990820595996451,0.00027473122907598784,0.004545022925795454,0.001062751067907229,0.007201924045256013
0.9133333333333333,-0.5110127083807627,0.8945419815389627,-0.0017188961470801212,0.003065656077136082,0.001101979808506866,0.006653180702059027
0.92,-0.4878411763465672,0.9971665832048386,-0.003324212611042237,0.001919234791884233,0.0011348713626096216,0.006251041129446833
0.9266666666666666,-0.46749368927240575,1.1025997055058483,-0.004555163184345582,0.0010861970338262585,0.0011496183083684404,0.006033293377789827
0.9333333333333333,-0.4535975165583713,1.1694525677737633,-0.0053448328928622805,0.0005893879934513011,0.0011524511053223468,0.005961426459837091
0.94,-0.4288706754820478,1.1725661473884763,-0.006700641630226019,-0.0002201903950112314,0.0011339334552838438,0.005983852340739499
