# n,energy,berry,bcd_x,bcd_y,qmd_x,qmd_y
0.00000016666666666666665,-3.119054756203411,-0.00000004450436395110908,0,0,0,0
0.006688963210702341,-3.0716718824394458,-0.0018026294114115435,0.0000000000000000014783950655227659,-0.0000000000000000012278782368421437,-0.000000000000000003288230314419418,0.0000000000000000005062777174134308
0.013377926421404682,-3.02512983979227,-0.003608652147182441,0.000000000000000000931314899629333,-0.000000000000000009918550617484915,-0.00000000000000000009073857446581813,0.000000000000000001408567023047292
0.020066889632107024,-2.97948434327074,-0.0053828142773496455,0.000000000000000010818870920402663,-0.000000000000000019383839082670365,0.000000000000000003032250512433954,-0.000000000000000004293342253308489
0.026755852842809364,-2.9349718977632686,-0.007078074198234415,0.000000000000000012135910480712988,-0.000000000000000029017921496783455,0.000000000000000012195654186675732,-0.000000000000000005299383819701258
0.033444816053511704,-2.905147813226207,-0.007864704562740178,0.000000000000000005585822663157769,-0.00000000000000002983639359081273,0.0000000000000000059418059654699285,-0.00000000000000000027678146672678044
0.04013377926421405,-2.8824727688581517,-0.00820628207187511,0.000000000000000003707261357756934,-0.0000000000000000441327822100645,-0.000000000000000004679682765886049,-0.00000000000000000019834096398923456
0.046822742474916385,-2.859986490310846,-0.008518972760008516,-0.000000000000000012377370479872867,-0.000000000000000017075191469414606,-0.000000000000000022589616529861258,-0.000000000000000003758596011044383
0.05351170568561873,-2.8377146733456216,-0.00880679156398234,0.000000000000000004542874376831762,-0.000000000000000050096271891661725,-0.0000000000000000062388015606151224,0.0000000000000000036115470492504535
0.06020066889632107,-2.8156278577795963,-0.009071342889680256,-0.00000000000000001922570150497835,-0.00000000000000005046700647437461,0.000000000000000012868516212234383,-0.0000000000000000015620176480357714
0.06688963210702341,-2.79380183169723,-0.009316014796418188,-0.00001455710421846623,0.000021567596241951423,0.0001593317220577275,-0.00014161662342522223
0.07357859531772576,-2.7721479417288135,-0.009548232727653278,0.00003125462278440632,0.000012521802097176393,0.00016274373992651605,-0.00009903076774303545
0.0802675585284281,-2.750719385723132,-0.009770571098470475,0.00006944745679063033,0.000010794573099137101,0.0001976897842719132,-0.00009224048488090253
0.08695652173913043,-2.7295073983425673,-0.009995633387923213,0.00011277696900060592,0.000011020134580720625,0.00024322609519098108,-0.00009198967710600035
0.09364548494983277,-2.7085236696108397,-0.010230184156692135,0.00016507228066150136,0.000012353014198940155,0.00029629073227673274,-0.00009354033456027242
0.10033444816053512,-2.6877242835733455,-0.010491720992600142,0.00022920477799312077,0.00001461336877671135,0.0003543755967661302,-0.00009477079716879571
0.10702341137123746,-2.667136580431115,-0.010794528727354542,0.0003080041108078742,0.00001780597984161456,0.0004135027983740269,-0.00009431807796459013
0.11371237458193979,-2.646789931509248,-0.011159229101296263,0.00040415341956010826,0.00002202567056643277,0.0004662156193056322,-0.00009102163779260075
0.12040133779264214,-2.626648188681229,-0.011623770046980023,0.000521029010140383,0.000027461428670888845,0.0005005790065909214,-0.0000842173757493754
0.12709030100334448,-2.6067298878957663,-0.012228079644396896,0.0006661443296128721,0.000033023482650951126,0.0005035077414850882,-0.00011650997205660978
0.13377926421404682,-2.587047918079934,-0.01300841104965366,0.0008464196845454222,0.000040323685396360984,0.0004504970830480257,-0.0002504131943773599
0.14046822742474915,-2.5675831965989753,-0.014056285448070985,0.0010258245279641377,0.00006956076143697484,0.0002390540460398237,-0.00019279045087356513
0.14715719063545152,-2.548365451540163,-0.01544474956094352,0.0012425595708590764,0.00009769587738228535,-0.00013605406515733215,-0.00019766767827210466
0.15384615384615385,-2.5294077225670386,-0.017344699689395657,0.0014874952959838031,0.00013081535578504674,-0.0007722076319346337,-0.00023851870437942646
0.1605351170568562,-2.510701847345772,-0.019911354478442327,0.0017561446415514746,0.00017171300812114014,-0.0018245715280220292,-0.0003435121954191527
0.16722408026755853,-2.492320458665338,-0.02357665153132088,0.0020345862577431342,0.0002221847871968639,-0.003444610466753357,-0.0005567475463893039
0.17391304347826086,-2.474208182065386,-0.02864517182601232,0.0023059199829283546,0.0002840450776288134,-0.005794967519712535,-0.0009375758547074471
0.1806020066889632,-2.4564371324674625,-0.03570256295042125,0.002547017072033516,0.0003586016866073844,-0.009017615627822956,-0.0015566147769266432
0.18729096989966554,-2.4390524027537808,-0.045797710035991666,0.002733500853566765,0.00044610135845455257,-0.013187355592939069,-0.002481514611082496
0.1939799331103679,-2.422122022022921,-0.06033427124232921,0.0028443536465158786,0.0005451277130953788,-0.018263675632995434,-0.00375580358918356
0.20066889632107024,-2.4057735958354862,-0.08129512292809779,0.0028672737027889603,0.0006523514798155343,-0.02406919998883812,-0.005377569081916981
0.20735785953177258,-2.3904908736948522,-0.11497499365861533,0.0027811004563707974,0.0007614261549780579,-0.03027938662664548,-0.007334830634359959
0.2140468227424749,-2.3761721430817278,-0.16261995579429014,0.002605764960173034,0.0008642727781406952,-0.03635751394137232,-0.009488691675327347
0.22073578595317725,-2.3610148497434005,-0.20526209398844736,0.0023531004189297432,0.0009688030457423158,-0.04269776664941643,-0.011947964090416919
0.22742474916387959,-2.3437515144954926,-0.23167054129420536,0.001986867545006679,0.0010759226029696091,-0.049414610017818245,-0.014886486372083911
0.23411371237458195,-2.3251975784392838,-0.2490086992164032,0.0015405791890672027,0.0011668391978033729,-0.05536927487409561,-0.017954366929429876
0.2408026755852843,-2.3056139319327773,-0.2593144331858172,0.001072128349358623,0.0012296711093630612,-0.05976110666823662,-0.020790822527566172
0.24749163879598662,-2.2851851168093114,-0.2634369365111121,0.0006393945498107314,0.0012614886164841674,-0.06229674556346836,-0.02311784694319914
0.25418060200668896,-2.263993181147785,-0.26176013157519257,0.0002774936643592925,0.0012671110069784974,-0.06318357701551812,-0.024824592496805003
0.2608695652173913,-2.2427121900708307,-0.24883144362511778,0.000002706741717953069,0.001254510866951942,-0.06282887579200866,-0.025881322344049346
0.26755852842809363,-2.224437135274675,-0.19660521242250134,-0.00014700282424789867,0.001207086834631086,-0.06226533206162267,-0.026400380082211277
0.27424749163879597,-2.2095836420931305,-0.1173979903772259,0.00047253269889024733,0.0004497086379160293,-0.07279297348915108,-0.02835383805978922
0.2809364548494983,-2.195112077750104,-0.04208290532781496,0.0003636103613212446,0.0002396492037917318,-0.07926548420987305,-0.030187772896510714
0.28762541806020064,-2.181003566116069,0.030813875787505076,-0.00004354469632539648,0.00029595391543640745,-0.08353092695643945,-0.03188253225023958
0.29431438127090304,-2.1674274896682117,0.10219536745592894,-0.0002631863631761624,0.000340428208958372,-0.08717129534015851,-0.03333266895176956
0.3010033444816054,-2.1546114678305894,0.17588683115723275,-0.00039557527738351823,0.0004063637682128029,-0.08966687698674315,-0.034340775330079884
0.3076923076923077,-2.14230134008451,0.25212309163365443,-0.0004868906863528708,0.0004821083271921124,-0.09153524708622718,-0.03509507545952951
0.31438127090301005,-2.1316432817149567,0.3399664069633198,-0.0004997201232258666,0.0005752373821844488,-0.0917964213953467,-0.03515279143030063
0.3210702341137124,-2.1218752491439252,0.43588148682248423,-0.000501303615718186,0.0006650937297514516,-0.09175307141816057,-0.0350659437243511
0.3277591973244147,-2.1151526806723786,0.5594162931378127,-0.0004644060665001864,0.0007437516233089955,-0.09066770919491812,-0.03448443228137982
0.33444816053511706,-2.1084301122008324,0.6829510994531413,-0.0004275085172821868,0.0008224095168665394,-0.08958234697167566,-0.03390292083840854
0.3411371237458194,-2.101306639720229,0.8049408625201645,-0.00037809163651810894,0.0009103221334283241,-0.08802714973516505,-0.03306060016628184
0.34782608695652173,-2.092614634261527,0.9208856591293688,-0.00027969299465875695,0.0010344437623905085,-0.08463372764700051,-0.031197865959541552
0.35451505016722407,-2.0839226288028248,1.036830455738573,-0.00018129435279940495,0.0011585653913526927,-0.08124030555883598,-0.02933513175280127
0.3612040133779264,-2.0730355436366974,1.1449680850553394,-0.00002730054949105426,0.001315071100065397,-0.07423567555040174,-0.025209886043312778
0.36789297658862874,-2.061709226960601,1.2517144876768036,0.0001331191319005666,0.001470573445453663,-0.0663386065063872,-0.0204808711801008
0.3745819397993311,-2.048712154107842,1.3554015502497514,0.0002566255313422577,0.0015245388534850736,-0.0528289960536706,-0.011482835049846518
0.38127090301003347,-2.034673455485888,1.4521193730559128,0.00030736272200335846,0.0015073009092596498,-0.03974711824545227,-0.0029869458872355138
0.3879598662207358,-2.0192582117300555,1.538632954933746,0.0003178899555008265,0.0014415345334532858,-0.028275651972329816,0.004111803003706213
0.39464882943143814,-2.002094821231542,1.6077252899087007,0.0005285230880948373,0.001518682988352626,-0.023540610432840923,0.006143683463832622
0.4013377926421405,-1.9836976410392635,1.6709153854094823,0.0007396093264507237,0.0016027731743134088,-0.01795380648928916,0.008296717345919961
0.4080267558528428,-1.9649363964813564,1.7189896863630603,0.0009293088769491794,0.0016984242361017302,-0.011886241714769173,0.010458819104452339
0.41471571906354515,-1.9491907879824826,1.716962402164966,0.001060999645861893,0.0017913581118424054,-0.006492582844678389,0.012303739043307832
0.4214046822742475,-1.93423883890784,1.7035825811396912,0.00116229251236305,0.001890571658458504,-0.0010996396618559996,0.0141510904503831
0.4280936454849498,-1.919197185379835,1.693068637665506,0.0004659774633064913,0.002445885730133549,0.006585502265138389,0.01895415342476437
0.43478260869565216,-1.9040743047837043,1.6848975296812543,-0.011164663814110212,0.009276433797141242,0.04248964660762518,0.06359666449683216
0.4414715719063545,-1.8889142097796747,1.677999897994878,-0.00740567656661665,0.007087124399887689,0.049290528509840746,0.06164399446617461
0.44816053511705684,-1.873770217655818,1.6723419291924886,-0.001223166833044676,0.003516231398733952,0.05220777443794499,0.052641844548464774
0.45484949832775917,-1.8586772106729015,1.6679975530766866,-0.0006498069678259285,0.0032952252107251476,0.06684059275831529,0.06108068611513682
0.46153846153846156,-1.843639661371831,1.6663965954246736,-0.00041745578322172706,0.0032727936555959755,0.08171126502619207,0.07042436374361821
0.4682274247491639,-1.8287049728381892,1.6690685382974375,-0.000345077315986251,0.0032564065151739307,0.09393809379674808,0.07966732725353448
0.47491638795986624,-1.813922641961202,1.6794767583826098,-0.00045753478455661076,0.00316463756603012,0.09663449784063352,0.08685606611075312
0.4816053511705686,-1.799362718087852,1.7020953711178952,-0.0008058418186875031,0.0029078608435045023,0.08175935745150337,0.0898044401343521
0.4882943143812709,-1.7854029601817503,1.7850666965868092,-0.004159860579716738,0.003050341637972738,0.09335978010769706,0.19067810388417625
0.49498327759197325,-1.7708949610022606,1.8716139204235742,0.006410782684567483,-0.005436087696447858,452.48868440247907,-775.0375632270711
0.5016722408026756,-1.7557109362424945,1.9542847325196415,0.02603814708881441,-0.019033656754288048,1176.9579282164818,-2016.7609653350019
0.5083612040133779,-1.7405922611192772,2.020396480598393,-0.0036673919053381437,0.00043965442278574157,208.89362000448227,-358.9307537383497
0.5150501672240803,-1.7268716446449246,2.0732180409901253,-0.011848890021817418,0.005582094890483803,-0.3376876491920569,-0.3840961195881085
0.5217391304347826,-1.7133904053191948,2.1181213085767765,-0.014099717833076363,0.0067779423217928176,-0.27911526690061644,-0.25658042853763463
0.5284280936454849,-1.6994929728695298,2.150922975890536,-0.01636847271978886,0.007991680604075471,-0.27404893335949365,-0.23761404148091153
0.5351170568561873,-1.6852410023273827,2.178444177783734,-0.01871197073546191,0.009640296788886208,-0.25531252300093876,-0.21945098968997126
0.5418060200668896,-1.6708053772931573,2.20334167712171,-0.021198560179643222,0.011617500684942097,-0.23216045521918377,-0.20204988321347675
0.5484949832775919,-1.6562173243407343,2.2261502157500064,-0.023886782895677604,0.013949454880595097,-0.20745996541023884,-0.18555573782000154
0.5551839464882943,-1.641615332326223,2.2441492414437936,-0.027493314188623337,0.0171544874089568,-0.18305517786840397,-0.17073376123258938
0.5618729096989966,-1.6270606516645851,2.2601313750828074,-0.03354759806210094,0.02201453361021677,-0.15923148185736263,-0.15826848621324588
0.568561872909699,-1.6125850886192743,2.273460037582944,-0.03452213124733357,0.024314524443073297,-0.13412232956175588,-0.1408807332804753
0.5752508361204013,-1.5983006020866706,2.281388939035608,-0.008162207716160767,0.011694609273818199,-0.10220340017315238,-0.09707238510230083
0.5819397993311036,-1.584331479524305,2.28240286041373,-0.002596501071509888,0.009252996660754579,-0.08795717943405282,-0.0832031821143926
0.5886287625418061,-1.5706970180948132,2.2764391785478315,-0.0030580686155473515,0.009736926580954807,-0.07901882976581125,-0.07807763560250014
0.5953177257525084,-1.557601643843178,2.2594543640000366,-0.0034982249538767648,0.010155663865310617,-0.07047335642200758,-0.07306693799005436
0.6020066889632107,-1.5455980595922731,2.214341594264312,-0.0038809393906089206,0.0104747484178868,-0.06269534891331859,-0.06836236699098318
0.6086956521739131,-1.5339973926908865,2.158528863486304,-0.004243056911080973,0.010759624235408268,-0.055199787273739656,-0.06377649506867575
0.6153846153846154,-1.5258625537300459,1.9938288073979895,-0.004459723733833782,0.010885611145172636,-0.050092548811000635,-0.06051352161575188
0.6220735785953178,-1.5177277147692054,1.8291287513096757,-0.00467639055658659,0.011011598054937004,-0.04498531034826161,-0.057250548162828006
0.6287625418060201,-1.5067598597995966,1.7744508648145911,-0.004920235137108146,0.011105536253875448,-0.03832577952105912,-0.05287217652817874
0.6354515050167224,-1.4931026123513378,1.8253605811974227,-0.005187061796118841,0.01116559578136707,-0.03020937780964861,-0.04744125227217813
0.6421404682274248,-1.4772244710712297,2.0083829371833617,-0.005362142851560314,0.01106193024633512,-0.021547118414364415,-0.04138864146899713
0.6488294314381271,-1.4584390140099346,1.9420464043683385,-0.005415239973733052,0.01077191081245351,-0.012247130028655337,-0.03465009384905697
0.6555183946488294,-1.4370282603120983,1.6321489653978558,-0.005237779994880311,0.010217280811794944,-0.0031510530688125624,-0.027722147253839216
0.6622073578595318,-1.4166966618090837,1.2969182244664252,-0.004832079388460995,0.009415649107945963,0.01410854036281971,-0.016184842200205312
0.6688963210702341,-1.3967011149757254,0.948543896073359,-0.003950521506684219,0.008695511607392077,0.02960283214454983,-0.005783685604028734
0.6755852842809364,-1.376633463339847,0.5640191342970564,-0.0025799215335250876,0.00800108227273689,0.04080529135691446,0.0017920426288641662
0.6822742474916388,-1.3567302698512669,0.1286464429584782,-0.0006990754903490534,0.007217423809436421,0.0483858521713964,0.006946835957596185
0.6889632107023411,-1.3372686944348642,-0.38342045319581414,0.0019065118128005314,0.006229966522716976,0.05300474922049716,0.010057225837164391
0.6956521739130435,-1.3191976276928867,-1.0717822880523555,0.006062128360583927,0.004654472616715682,0.055612746425845974,0.011168202868933183
0.7023411371237458,-1.3012285282310958,-1.745718562200042,0.004007458012745523,0.007670162069804581,0.047178509322015096,0.01219188337611811
0.7090301003344481,-1.2822870552642758,-2.293901358730223,-0.0007731265702518857,0.012082030406688697,0.037909505248759315,0.014215788723659598
0.7157190635451505,-1.2601603459727015,-2.6610539995037974,0.0002786476309706321,0.011658548964947765,0.04214716106110227,0.016790477650781475
0.7224080267558528,-1.23234623268635,-2.7086548760637617,0.0017563206851839287,0.011108458594608978,0.045926221464000286,0.018895802349773567
0.7290969899665551,-1.2039693442703387,-2.644483430145272,0.003497875268409125,0.010531054035163138,0.048064288774929693,0.019848721037433646
0.7357859531772575,-1.1763130532647086,-2.5475293516112854,0.005444919496201,0.00994196846916814,0.04856000777272841,0.019801361333066002
0.7424749163879598,-1.1494859560537778,-2.427456596148459,0.007558181917618468,0.009324731489281765,0.047486195533553446,0.01895804254960045
0.7491638795986622,-1.1238379992015681,-2.285107615905809,0.009753013633433071,0.008656749745323208,0.044601382874990395,0.01739525465015335
0.7558528428093646,-1.099464716953537,-2.119199959524048,0.01185351752032703,0.00794255063006468,0.040242716683582654,0.015417688599334865
0.7625418060200669,-1.0766689578971007,-1.920960903514956,0.01366865018151591,0.007213371292552563,0.03494281387053473,0.013330072475720574
0.7692307692307693,-1.0567308839365421,-1.6500745650639883,0.014993715232054124,0.006546289649168944,0.029615837937899264,0.011485377160065481
0.7759197324414716,-1.0377222903127001,-1.3789763999561382,0.015922073258750162,0.005909611719424377,0.024274896992263366,0.009850768295618234
0.782608695652174,-1.017095455485176,-1.2004432883633003,0.01647625297865312,0.005247481136399428,0.018586489987602733,0.008335050356123004
0.7892976588628763,-0.9949861552445277,-1.0925782329096039,0.016513192404519917,0.004601845624809711,0.01304111416975408,0.007088102362964952
0.7959866220735786,-0.9719874184024727,-1.0217050498521174,0.015988535607169636,0.004021937144402144,0.008203810382715006,0.0062077626761079556
0.802675585284281,-0.948240564007335,-0.9741331577353783,0.014969559228000782,0.003526640679291703,0.0043420400949164585,0.005673414719325311
0.8093645484949833,-0.9239369109997329,-0.9417445606374469,0.013595193528227767,0.0031204655895056567,0.0015467613581675937,0.00541131690138231
0.8160535117056856,-0.8990832559912755,-0.9206545806753661,0.012034668049727176,0.002795097517107274,-0.00022253793098407615,0.00532885106756413
0.822742474916388,-0.8737599495288727,-0.9066966088505155,0.01047212351925715,0.0025190667602249814,-0.0013028451790055566,0.0053205368740063385
0.8294314381270903,-0.8480016397137036,-0.8975699179924228,0.009018131704340886,0.002272458232823493,-0.001900243965474402,0.005342425334831335
0.8361204013377926,-0.821854345008677,-0.8919226582328289,0.00775251658605351,0.0020372467121761205,-0.0021840776145982954,0.005378625407366445
0.842809364548495,-0.7952814536789478,-0.8893727962373489,0.006738855459867023,0.0017946432345814153,-0.002287157623703142,0.0054370418704346645
0.8494983277591973,-0.7683370283470697,-0.8883904811373708,0.005951666341784527,0.0015296933830613632,-0.0023305394386478684,0.00553389514243107
0.8561872909698997,-0.7410751193937181,-0.8886838716508965,0.00538794137507482,0.001229412399213964,-0.002369268362409107,0.005692341747403891
0.862876254180602,-0.7134247408066998,-0.8903181440273608,0.005068395527815953,0.000867628159634522,-0.002450526825136053,0.0059568438934580435
0.8695652173913043,-0.6854726981459004,-0.8922494833638176,0.004944985842769019,0.00043465009864883267,-0.002594778245202989,0.006345173935209896
0.8762541806020067,-0.6572757337891596,-0.8946376015876987,0.005038454495222817,-0.00010479881858873928,-0.0028350947861173325,0.0069136745463648855
0.882943143812709,-0.628693802027657,-0.8973908277561555,0.005403713110845017,-0.0008047984492367574,-0.0032165560771319195,0.007769518569556202
0.8896321070234113,-0.5999351512708174,-0.900289983502555,0.006100987498740812,-0.0017215826074924946,-0.0037896317529534864,0.009025761334736015
