# n,energy,berry,bcd_x,bcd_y,qmd_x,qmd_y
0.0000015,-3.0999956162668694,-0.00000000000000001899043621878579,0,0,0,0
0.006688963210702341,-3.0518208509185607,-0.000004012334765700381,0.00000000000000000002315211211326362,0.000000000000000000007372047605952183,0.00000000000000000000008902091549561335,-0.0000000000000000000024573571683294493
0.013377926421404682,-3.0042868336491897,-0.00002972832849646582,0.00000000000000000003634785759797765,0.00000000000000000005579413713181563,-0.000000000000000000005929429348019388,0.000000000000000000029663162940898175
0.020066889632107024,-2.9575984439476026,-0.00010039429125064421,0.0000000000000000002400366850316893,-0.00000000000000000003848545892737563,-0.0000000000000000000473467992020861,0.00000000000000000017712075675474345
0.026755852842809364,-2.9120113832142054,-0.00024280170925001113,-0.00000000000000000023028033043191354,-0.0000000000000000005270946757765936,0.00000000000000000029168203575073214,0.0000000000000000005272677009782351
0.033444816053511704,-2.8824316616787273,-0.00038606218724705196,0.0000000000000000008927935151628456,0.000000000000000001101353289017536,0.0000000000000000007677274493751794,-0.0000000000000000000014225023701832335
0.04013377926421405,-2.859176120739811,-0.0005331275461426511,0.00000000000000000012984960393874938,0.000000000000000002598782751059735,-0.000000000000000000516766936581698,-0.00000000000000000033823253647368367
0.046822742474916385,-2.835969332386431,-0.0007125943797366098,0.0000000000000000004342919514519415,0.000000000000000003404093865148894,-0.0000000000000000002423804992372182,0.0000000000000000009960781123176925
0.05351170568561873,-2.8130730949369886,-0.000929041986821684,0.0000000000000000019501869195700116,-0.0000000000000000007333732951240934,-0.0000000000000000012672994590897461,-0.00000000000000000016799929602062784
0.06020066889632107,-2.7902896152990477,-0.0011811124547259151,0.0000000000000000009684970101172675,0.000000000000000003024814836769946,-0.000000000000000003586176305527648,0.0000000000000000008041392830067007
0.06688963210702341,-2.7676452125372095,-0.0014716074244686054,0.00000000000000000376211524195947,-0.00000000000000000012115461901250045,0.000000000000000002577139860661589,0.00000000000000000015225980881995754
0.07357859531772576,-2.7452229037174667,-0.001803618824088762,0.0000000000000000043133353631028916,-0.000000000000000010611601095534707,0.000000000000000005086877626180019,-0.0000000000000000017168002220436447
0.0802675585284281,-2.722932825121472,-0.0021795411200656893,-0.0000000000000000014666220018061452,-0.000000000000000007877691939930959,0.0000000000000000014045417065242036,0.0000000000000000006787730165198489
0.08695652173913043,-2.7007691646204615,-0.002603143645809582,-0.000000000000000002270925565592473,-0.000000000000000013493475745029188,-0.0000000000000000004877003659627988,-0.0000000000000000057633842624851645
0.09364548494983277,-2.678809855663147,-0.0030738855321332447,-0.000000000000000012619580189221328,-0.000000000000000013270414302015936,-0.000000000000000002369809716069568,0.000000000000000001439147537381426
0.10033444816053512,-2.656989310796136,-0.003598542059353407,0.000000000000000009953158767631921,0.0000000000000000009108286655189205,0.000000000000000004515135172800839,0.0000000000000000037308268673843276
0.10702341137123746,-2.635366293367787,-0.004186785178258932,-0.000000000000000022187164757295,-0.000000000000000009864770026008888,-0.000000000000000009395897793813444,-0.000000000000000000015965626537506958
0.11371237458193979,-2.6138596433653736,-0.004833356305710903,-0.000000000000000013700382352603163,0.0000000000000000156068472474223,0.00000000000000001644215732230113,-0.0000000000000000053544483792384055
0.12040133779264214,-2.5925892147844287,-0.005544544859973688,-0.000000000000000012035138335234406,0.000000000000000015170931431394772,-0.000000000000000008574337224661527,0.0000000000000000029276923767516497
0.12709030100334448,-2.5713422613702885,-0.006325496324311723,0.00000000000000001541660727598606,-0.000000000000000004898095843936639,-0.000000000000000007590116997958704,-0.0000000000000000014879195449788621
0.13377926421404682,-2.5504175120306627,-0.007183544764924325,-0.0000000000000000044905681779180415,-0.00000000000000001088568501284862,-0.000000000000000011735431669032939,0.000000000000000008435936582724825
0.14046822742474915,-2.529579923679214,-0.008120417833386453,-0.000000000000000024603779783973395,-0.000000000000000022995494083689034,-0.000000000000000008958216647750447,-0.0000000000000000014144481668737728
0.14715719063545152,-2.5088959616194986,-0.00913885398859179,-0.00000000000000002790500557618044,-0.000000000000000010724375786337052,0.000000000000000012208109052107907,-0.00000000000000001599756458036701
0.15384615384615385,-2.4883640045682474,-0.010252240722122061,-0.000000000000000008856539741989571,-0.000000000000000010366735178915254,0.00000000000000002364596410110346,-0.0000000000000000067274178694000055
0.1605351170568562,-2.4679166440265496,-0.011456314932869086,0.000000000000000006939511786029375,-0.00000000000000002823650527436261,0.00000000000000003039613503328039,0.0000000000000000016221941359626676
0.16722408026755853,-2.4476689610407893,-0.012770047593580114,-0.000000000000000032218663939684726,0.00000000000000013646967677225226,-0.00000000000000005895261858486582,0.000000000000000016274512155473035
0.17391304347826086,-2.4276916817722314,-0.014183683143804793,-0.00000000000000007015266958263771,0.00000000000000005257770122053806,-0.00000000000000006384387826851035,0.00000000000000004814599247890586
0.1806020066889632,-2.407762753528723,-0.01571680405421036,-0.0000000000000000847560270920659,-0.00000000000000008163107744207124,-0.00000000000000002343553415851553,0.00000000000000001500534104053839
0.18729096989966554,-2.3879829887365345,-0.017384112700044613,-0.00000000000000002577075882926468,0.00000000000000015979668083327812,0.000000000000000006869255685726512,-0.0000000000000000006206655704889397
0.1939799331103679,-2.368338435159219,-0.01918194595532469,-0.00000000000000004257475471386224,0.000000000000000042590677222160866,-0.0000000000000000068992133284374886,0.00000000000000003059977511211085
0.20066889632107024,-2.348918338229047,-0.021102557307275914,-0.00000000000000007390575284102277,-0.0000000000000000022892203034483776,0.0000000000000000687990873126845,-0.00000000000000002955006606429352
0.20735785953177258,-2.3296278263267785,-0.02319845452342263,-0.00000000000000017699253522382376,0.00000000000000004339648548968207,-0.00000000000000004084042606232267,-0.00000000000000004890637650690843
0.2140468227424749,-2.3104826931938254,-0.025456374435548407,-0.00000000000000013071457929485994,0.00000000000000016240669685337613,-0.000000000000000031688545634914355,-0.00000000000000001833302209920407
0.22073578595317725,-2.2915245870148357,-0.02789604745096807,-0.000000000000000015251233482510115,0.00000000000000020276803877339027,-0.000000000000000035661572880838056,-0.000000000000000004782248697009632
0.22742474916387959,-2.2727155696918073,-0.030506661038056007,-0.000000000000000012585590995791384,0.0000000000000000754325297274466,-0.0000000000000001537726493735997,-0.0000000000000000574367738811721
0.23411371237458195,-2.2539892339738916,-0.033354878650601334,-0.00000000000000007281486406231259,0.000000000000000020258911231538128,0.0000000000000000051918813777962536,0.00000000000000006287206768100107
0.2408026755852843,-2.2354798494381143,-0.03639505453738234,-0.00000000000000009900948077800818,-0.0000000000000001725479217005714,-0.00000000000000008336299627146711,0.000000000000000001924646456094476
0.24749163879598662,-2.2170852563236307,-0.039703947841020625,0.00000000000000005601674890470999,0.00000000000000006211736773137654,0.000000000000000007389183063763027,-0.000000000000000017953746325209303
0.25418060200668896,-2.1989448280127726,-0.043252785815482066,0.00000000000000006066702062144369,-0.00000000000000016441998102939596,-0.00000000000000007535589056940829,0.000000000000000022000681697213747
0.2608695652173913,-2.1809286373088907,-0.04705382140715078,-0.000987765705376595,0.00000000000000004105006326679167,0.000000000000000015975451210066452,-0.0003521643233520833
0.26755852842809363,-2.1630173498364673,-0.05116572063483752,-0.0015117182593333794,0.00000000000000006195598077579688,0.000000000000000053040358808146227,-0.0005448818252732535
0.27424749163879597,-2.145276069392276,-0.05560236035598733,-0.0008110672108582076,-0.0000000000000003002165198370506,-0.00000000000000005978768487336987,-0.000306238371726573
0.2809364548494983,-2.1276906586681315,-0.060334118127253436,-0.000686069211034943,0.000000000000000223983372496128,0.00000000000000015385094715437068,-0.00026818146929951487
0.28762541806020064,-2.1207240563268304,-0.012760336714574159,0.2289729587629683,-0.3963245171442577,3.8682334249994623,-2.279965522449741
0.29431438127090304,-2.101963623566165,-0.009033561750631604,0.26633207090837013,-0.46105792572300364,4.514240405678862,-2.6613323206175528
0.3010033444816054,-2.082615575437379,0.0019189459323427714,0.26882020046884014,-0.4653198523595751,6.319428842295942,-3.710535205401907
0.3076923076923077,-2.0626912863226106,0.016438120262496612,0.3000891445213254,-0.5197472706817277,7.7484016426018005,-4.539705313805337
0.31438127090301005,-2.042957147097077,0.03110011218617382,0.3146283714133238,-0.5449859339994222,8.40574905566085,-4.918415876488687
0.3210702341137124,-2.0245664099186165,0.040025954648022936,0.2784249119386553,-0.48246747943409757,7.9407834112124975,-4.642021138784782
0.3277591973244147,-2.0069240344982493,0.046221573877148286,0.2396420966545495,-0.41548894262233493,7.113101294382519,-4.150034442810427
0.33444816053511706,-1.9905959573856196,0.04672787656099297,0.23251356152069347,-0.400010806324125,6.863563885758948,-4.005820801384578
0.3411371237458194,-1.9744404051219904,0.04803031790513585,0.2117258522117746,-0.362244214528255,6.834681588176297,-3.965955445389775
0.34782608695652173,-1.958452118599257,0.0499300041283892,0.18393070482679924,-0.3127963262281269,6.905218966949882,-3.9771650506966663
0.35451505016722407,-1.942627110799903,0.05219701246704602,0.15089657998694303,-0.2565973861365277,7.046089715840881,-4.01856341554362
0.3612040133779264,-1.9269623306552466,0.05465833940116932,0.11412968369055355,-0.19667034814518802,7.253213721423401,-4.0843262282837625
0.36789297658862874,-1.9115064235139445,0.05742921652113937,0.07876800600946984,-0.13384067530592295,7.548603372069273,-4.2042075375138115
0.3745819397993311,-1.8962368812565964,0.05981046136825568,0.041064457192457514,-0.06742298510273273,7.952491131649499,-4.398344496451919
0.38127090301003347,-1.8811417829684343,0.06138872039020947,0.003219640096727313,-0.00008186742340025865,8.503398608331048,-4.710307264297518
0.3879598662207358,-1.8662182349667524,0.06122252011786765,-0.028442898506025573,0.058226904257756874,9.27420414612968,-5.216984546343893
0.39464882943143814,-1.8514839687104043,0.05714817796283631,-0.039675301991691496,0.08472530080331085,10.437974405638078,-6.095468351564334
0.4013377926421405,-1.8370045251898315,0.02444293504044015,0.39499628345783533,-0.5047576911901286,13.478300969051412,-11.364448541649988
0.4080267558528428,-1.82677777320615,-0.27898997298253575,0.030915410775823604,-0.0000000000000003799717530615956,-0.00000000000000035333884153380553,-0.015361252171195803
0.41471571906354515,-1.8128240119816907,-0.30403601950033926,0.02920012398154529,0.000000000000000626111611162942,-0.0000000000000003581460570110389,-0.01482733952296438
0.4214046822742475,-1.7992616201300016,-0.33141941266878716,0.02754583816584671,-0.00000000000000001873871263633313,-0.0000000000000002970177939526602,-0.014101183737678215
0.4280936454849498,-1.7859748260043715,-0.3607329967886461,0.0258918068113835,-0.0000000000000014283215141021124,-0.00000000000000013757812397745037,-0.013228995198039767
0.43478260869565216,-1.7729832543161632,-0.3943251474769641,0.023905919257332858,-0.0000000000000005627737299228115,0.0000000000000005306931164829827,-0.01211748333503515
0.4414715719063545,-1.7602657033220768,-0.4316470731986753,0.021727626076835208,-0.0000000000000004953445930826183,0.0000000000000004172768805437635,-0.010922694710977308
0.44816053511705684,-1.7477750549250364,-0.47205743588748356,0.01939001158497798,-0.0000000000000010887969068668421,-0.0000000000000003434149892379581,-0.009658948837478361
0.45484949832775917,-1.7357884933029006,-0.5203957592270905,0.01680054861926559,0.000000000000000012938812074068346,-0.0000000000000006268281263486123,-0.008335358340542446
0.46153846153846156,-1.7240006673705917,-0.5722986928446037,0.014163901309691918,0.0000000000000009484418342637545,-0.0000000000000007320243967191217,-0.007013993046084047
0.4682274247491639,-1.7127223236082045,-0.6336045467120089,0.011437699402079868,0.0000000000000009547464397474227,-0.0000000000000003863382612316464,-0.0057138949947574125
0.47491638795986624,-1.7018508654324163,-0.7043528324553356,0.00877041768070553,0.0000000000000013919866553493188,-0.0000000000000003303208247613985,-0.0044767531860223884
0.4816053511705686,-1.691477958850677,-0.7866708066282536,0.006175330093844576,0.0000000000000023572466446493127,-0.0000000000000006292306612091085,-0.0033167508389275483
0.4882943143812709,-1.6821317905453572,-0.8915229379971308,0.003942576543885902,0.0000000000000029094049377580224,-0.0000000000000004138142096914674,-0.002344032130176861
0.49498327759197325,-1.6738023810982003,-1.0186902050402358,0.002068635312602051,0.000000000000003052476690926593,0.0000000000000003109295176129434,-0.0015567767499575908
0.5016722408026756,-1.665533460853176,-1.1476815385706807,0.0003053808667335162,0.000000000000003009714207484431,0.0000000000000009660919318477729,-0.0008169416952321426
0.5083612040133779,-1.6579810407366642,-1.2982791063795416,-0.00014677848813538262,0.000000000000000765728204488506,0.000000000000000797057332423437,-0.0006388047306199105
0.5150501672240803,-1.6504286206201522,-1.4488766741884027,-0.0005989378430042814,-0.0000000000000014782577985074192,0.0000000000000006280227329991011,-0.0004606677660076783
0.5217391304347826,-1.6413790045090153,-1.5604617630347597,-0.0008735528395007555,-0.0000000000000020025204085588576,0.0000000000000006111537625306654,-0.0003553100569017855
0.5284280936454849,-1.6301189926382151,-1.6144505061907342,-0.000886048982949623,0.000000000000000012142619185460645,0.0000000000000008189355807486417,-0.00035740050978684703
0.5351170568561873,-1.6183336672062845,-1.6569591900010265,-0.0008992876003595967,0.00000000000000018473516575271954,0.0000000000000012479855257390883,-0.0003594758573558648
0.5418060200668896,-1.6062128630417272,-1.6921364130519942,-0.0009130003807113079,-0.0000000000000008190658098737537,0.0000000000000018183429796782415,-0.00036154155828208246
0.5484949832775919,-1.59392961204119,-1.7134440372991233,-0.0009272418105088782,-0.000000000000001050160798504741,0.0000000000000005405763301746249,-0.00036349110203863803
0.5551839464882943,-1.5816276199880266,-1.7299610839112123,-0.0009416183416498936,-0.000000000000000658793682083707,-0.00000000000000003588983935294375,-0.0003653812710795337
0.5618729096989966,-1.569304470707422,-1.737270872295276,-0.0009562356413093,0.0000000000000010703326022202519,0.0000000000000012683148990937355,-0.0003671496671151921
0.568561872909699,-1.5570013780486653,-1.735528445560579,-0.0009710338137844211,0.0000000000000021911548172209267,0.00000000000000036279411955107126,-0.0003687939962405135
0.5752508361204013,-1.5447119043133324,-1.7288638637913667,-0.0009859257285172035,0.000000000000002972359102336363,-0.0000000000000015940964864477882,-0.00037037093639140085
0.5819397993311036,-1.532592731262241,-1.7067154363049248,-0.0010008960722185031,0.0000000000000022693672248713854,0.00000000000000019658336676973442,-0.0003717392980671822
0.5886287625418061,-1.523023378825436,1.689327686885678,-0.03419020385347045,0.02509608816316021,0.6319966301591433,0.14276835762889406
0.5953177257525084,-1.5115199993615431,1.657797573330908,-0.03586528529967169,0.028759455165168996,0.6969046217608431,0.17077941076345174
0.6020066889632107,-1.500597078105167,1.6043994719835875,-0.03645437866954846,0.031740727092500545,0.7686636235732787,0.20712100275171264
0.6086956521739131,-1.489824939891436,1.5453208208685292,-0.03676136975487793,0.034544814220993265,0.8422022817871422,0.2456265817057361
0.6153846153846154,-1.4807547619934225,1.4354339560733964,-0.03598407673166319,0.03606533963001426,0.9043519464412488,0.2810160484797992
0.6220735785953178,-1.4717966849099862,1.3222005725092036,-0.03513536657217429,0.03750132234260221,0.9657514670153367,0.31620027033101583
0.6287625418060201,-1.4635902835569439,1.183553402418418,-0.03386456229291611,0.038234629958283764,1.016974138104609,0.3463479579422731
0.6354515050167224,-1.4556956343181138,1.0343660467669704,-0.03241869750696102,0.03867650812080219,1.0639760339119042,0.37440677912600095
0.6421404682274248,-1.44689892708026,0.909227822326336,-0.031067588896993393,0.03921601247143207,1.1129739914690755,0.4033503867232076
0.6488294314381271,-1.4338470157654584,0.8975345884362653,-0.030163465809923636,0.04021604081732426,1.1713878071031152,0.43646772456607213
0.6555183946488294,-1.4274635445702237,0.2500093618764131,-0.6109623059909269,1.0538236422014662,-6.4973718271230165,5.544687185147978
0.6622073578595318,-1.4121516247074293,0.24000469911123645,-0.6718053946876078,1.1598744580187361,-6.601799992558488,5.349821351919237
0.6688963210702341,-1.3963307701711873,0.2317935393238939,-0.7489512731935477,1.294008625137991,-6.7984854972572695,5.142652934237165
0.6755852842809364,-1.3799673161841017,0.22515941155555969,-0.8405636505727989,1.464484554306826,-7.096725559699725,5.010761511317257
0.6822742474916388,-1.3631776584620072,0.21949784622508262,-0.9668598354436233,1.6886520676608108,-7.488470064356557,4.930965863278395
0.6889632107023411,-1.3459421879537146,0.21382059395641118,-1.1668323009802655,2.0373234834798457,-7.812262872307277,4.869591038598355
0.6956521739130435,-1.329266241961994,0.5156530150965767,-0.15239006343313638,-0.0077792691774871275,-0.046172998259210736,-4.476990431481433
0.7023411371237458,-1.3109678033584853,0.5369965718659873,0.56369764323147,-0.003320003690625963,-0.06081404327049798,-4.725600032597272
0.7090301003344481,-1.291007531300277,0.5827791415304799,0.9661890642299793,-0.0006979338410547527,-0.07597148665301987,-4.463728153342286
0.7157190635451505,-1.2676673182481437,0.6073170441823005,-0.034013363501709915,0.0013994803061047265,-0.07163264996481258,-2.388933976735156
0.7224080267558528,-1.2427195940903273,0.5014182797739283,-0.5449570901660798,0.002533822489980644,-0.06375439980689313,-1.6519925681451912
0.7290969899665551,-1.2210122261642045,0.3719453631402183,-0.7988037233332407,0.0031475182156853656,-0.05338872911824808,-1.66953464130576
0.7357859531772575,-1.202373603721251,0.24655397485139313,-1.1863683345104865,0.0031906058846502524,-0.04396911862748184,-1.196369583958098
0.7424749163879598,-1.183592500106521,0.21558289970664396,-0.03304036832835282,0.0031567340360776413,-0.03524762531453527,-0.8077832717507818
0.7491638795986622,-1.1644960183289603,0.19999445452768985,0.7321150206663548,0.003054428312255776,-0.02754919753489434,-0.46084221700273104
0.7558528428093646,-1.1489595753094148,0.5879842162142814,-0.002974826610369616,-0.0033513970956822172,0.010450488353327595,0.001148495033467887
0.7625418060200669,-1.1274549515227184,0.5555336304217221,-0.0023058299650487524,-0.002334968279755627,0.007046843472054391,0.0014933651858283666
0.7692307692307693,-1.1095591844245032,0.5246166781432022,-0.0018765063601040768,0.000000000000004753994467940854,0.0000000000000005038936312060891,-0.00028792368188660267
0.7759197324414716,-1.0869362877773945,0.534084252993633,-0.0019166077209275283,-0.0000000000000004669065562859357,0.000000000000000524349377867199,-0.00027646096896495446
