# n,energy,berry,bcd_x,bcd_y,qmd_x,qmd_y
0.00000016666666666666665,-3.0548836349886597,-0.000000009794672211846837,0,0,0,0
0.006688963210702341,-3.006956114517742,-0.00039456643214051885,-0.0000000000000000007767831644127801,-0.000000000000000001123312225186893,-0.0000000000000000006620075424117628,0.0000000000000000005079258160263993
0.013377926421404682,-2.9598678379509487,-0.0007728976568161928,0.0000000000000000021361529464609345,-0.0000000000000000019103658310244097,-0.000000000000000000915507791340313,-0.0000000000000000006013678345525295
0.020066889632107024,-2.9338773021541433,-0.0008362268034961214,0.0000000000000000022583384384090175,-0.0000000000000000010807198401559835,-0.0000000000000000015577488459867142,0.0000000000000000011886985503572733
0.026755852842809364,-2.9104642330753783,-0.0008492387403691262,0.000000000000000001018165312556209,-0.0000000000000000028087048055845938,0.000000000000000002461588856187531,-0.0000000000000000009140403898412638
0.033444816053511704,-2.8872031411630408,-0.0008446097438632988,-0.000000000000000001243444688810877,-0.0000000000000000020565394402911048,0.0000000000000000031634671201030984,-0.0000000000000000012012748942502898
0.04013377926421405,-2.864180599952194,-0.0008218812851184169,-0.0000000000000000013922207797690923,-0.000000000000000004715231951033741,0.0000000000000000011925423523805047,-0.00000000000000000449068030178263
0.046822742474916385,-2.8413393746725877,-0.0007796891925000806,0.00000000000000000009495175812379566,-0.0000000000000000018088944674267893,-0.0000000000000000017950955027854175,-0.000000000000000005628511835442624
0.05351170568561873,-2.8187063962418057,-0.0007163347935919834,-0.0000000000000000039133281350626475,-0.0000000000000000026367036722486956,0.000000000000000006854269874007966,-0.000000000000000004335402997857396
0.06020066889632107,-2.7962605179853584,-0.0006309193247203908,0.000000000000000002498734040162985,0.0000000000000000009904942505389326,-0.000000000000000009897814765266343,0.0000000000000000026475322963636157
0.06688963210702341,-2.774006087928055,-0.0005195152285171789,0.0000000000000000028723930193710733,-0.000000000000000003935261752503951,0.000000000000000007427221869172026,-0.000000000000000007078774083951696
0.07357859531772576,-2.751974883194759,-0.0003827865957726105,0.0000000000000000022242734097012323,-0.000000000000000008763650974061927,0.00000000000000000826213499619663,-0.0000000000000000022818410099176888
0.0802675585284281,-2.730114832395282,-0.00021922930917429487,-0.000012241607360211729,0.00000904589694092089,0.00001440152417383531,-0.000018209731595739462
0.08695652173913043,-2.7084713401569807,-0.00002796309373820122,-0.00003078565676557582,0.000026057723013765755,0.00004729327769588672,-0.00005039317590644683
0.09364548494983277,-2.6870172357280753,0.00019266238855686625,-0.000013857875544169964,0.000022181105979308547,0.000054815756820215475,-0.00003733095915979224
0.10033444816053512,-2.665736835106327,0.00044414812753300456,-0.0000014280512682564297,0.000021963518985197224,0.00006560197681761197,-0.00003176771362610682
0.10702341137123746,-2.6446748817053365,0.00072706392197219,0.000011162367413951462,0.00002305796618046293,0.00007804528124606839,-0.00002843582962096222
0.11371237458193979,-2.6237892435082935,0.0010440242134038445,0.00005593971847496766,0.000009338733175145532,0.0001076691286164581,-0.0000726399856101853
0.12040133779264214,-2.6030806896493184,0.001396574059841128,0.00007761203549415414,0.000012363999194487348,0.00011878158898108854,-0.0000859431759938176
0.12709030100334448,-2.5826037027499953,0.0017801447073217368,0.00008949318775310282,0.00002395778605956774,0.00012152445766205552,-0.00008033190345153715
0.13377926421404682,-2.5623023661788586,0.0021959427538070617,0.00011062735898567912,0.000033995959035545384,0.00012545273150028804,-0.00008031999329797824
0.14046822742474915,-2.5421980403770967,0.002644847633740739,0.00013853122022451913,0.00004472644372119563,0.00012456436497942165,-0.0000816749853057995
0.14715719063545152,-2.5223071272935957,0.00311921489491811,0.0001735982995471208,0.00005681662779386949,0.00011296673336500153,-0.00008342464301904522
0.15384615384615385,-2.502576931120382,0.0036126510981783076,0.00021706326789066308,0.00007073809381762504,0.00008207689221028354,-0.00008547466459678661
0.1605351170568562,-2.483061739651215,0.004106510295169352,0.00027037770569192723,0.00008684079878316077,0.000018855470404452554,-0.00008847114900592664
0.16722408026755853,-2.463754955624381,0.004594886590371069,0.0003354520667132982,0.0001055539375853751,-0.00009664120355921156,-0.00009420421426624423
0.17391304347826086,-2.444633818057075,0.005047740219350597,0.0004145844945016564,0.00012737562788051298,-0.00029496545113822075,-0.0001064531052467534
0.1806020066889632,-2.425729377965028,0.0054012745667206975,0.0005101322267590733,0.000152831593781809,-0.000621502311138223,-0.00013222682848246041
0.18729096989966554,-2.407056203247051,0.0055913661016769554,0.0006245892919301664,0.00018252838078977663,-0.0011431930742143463,-0.00018378446440548373
0.1939799331103679,-2.3885734337140216,0.005515480516212651,0.0007607409813090185,0.0002172999629125021,-0.0019595267391999405,-0.00028185718464834685
0.20066889632107024,-2.3702978289476886,0.004994936559681824,0.0009207050515266338,0.00025804697109958703,-0.0032114391975776404,-0.0004596855422989816
0.20735785953177258,-2.352278446439625,0.0036942873210678733,0.0011052726205273468,0.0003057051455105921,-0.005089315253741664,-0.0007675095714750671
0.2140468227424749,-2.3345160775721867,0.0010683385236456607,0.0013140158784815366,0.00036143527266350317,-0.007847881146216583,-0.0012786229172193193
0.22073578595317725,-2.3170226246181396,-0.0036765000445996214,0.0015442604507295797,0.00042646609353699056,-0.01180633031232344,-0.002092918220857202
0.22742474916387959,-2.2998701250893285,-0.012668638419180225,0.0017903432334695157,0.0005029941775268364,-0.017522010010140327,-0.003393178491661368
0.23411371237458195,-2.2832236864038156,-0.032254977997887874,0.0020356484520838093,0.0005926244423173166,-0.025682152348651975,-0.0054423783650999116
0.2408026755852843,-2.2677161349145964,-0.08422183460029516,0.002251787152375924,0.0006902384506155945,-0.03606166935504712,-0.00826424566745831
0.24749163879598662,-2.2519294624480035,-0.1428249404488643,0.0024416628648779356,0.0008038706921941223,-0.04977816639146961,-0.012247161889403729
0.25418060200668896,-2.2347823814937717,-0.1896425188500249,0.0025854851864661912,0.0009446576113282249,-0.06901324185420296,-0.018208518200923028
0.2608695652173913,-2.216191614751242,-0.21932070617110608,0.0026198286876786036,0.0011161322509442792,-0.09565106071767726,-0.02706649394972669
0.26755852842809363,-2.19682853944204,-0.234353982905074,0.002471339517285567,0.001305727653261786,-0.12919022899130544,-0.03905892200254388
0.27424749163879597,-2.178337734230899,-0.20934409308957008,0.0021377344994584417,0.0014799751265283962,-0.1643947069170497,-0.0525438959799168
0.2809364548494983,-2.1627635255332565,-0.13082134304132562,0.0017089573832652597,0.0015994030534225057,-0.1933300131595299,-0.0644626165714145
0.28762541806020064,-2.14773334623143,-0.05384041311308979,0.007044360516366617,-0.0017103847112523878,-0.240121709192654,-0.07643491333044175
0.29431438127090304,-2.133255937664233,0.03295483597929786,0.00824715047951127,-0.0028607247001039126,-0.2771962020023772,-0.08855159920368431
0.3010033444816054,-2.1192538511549817,0.13235076921656985,0.002210407461046904,-0.00007973507458708677,-0.2957645059952806,-0.10085223660447752
0.3076923076923077,-2.1034560052114584,0.20702329752964574,0.001311058761272082,-0.0001141341373648964,-0.3305860535093459,-0.11435915472936707
0.31438127090301005,-2.0871270559493533,0.27415003483366324,0.0005671054953738649,-0.0001307758341503383,-0.3613380893923012,-0.12659938607205243
0.3210702341137124,-2.0704205822760433,0.33617507632216526,-0.00001529880270507441,-0.00012106649470318792,-0.38537043527947845,-0.13643805200932865
0.3277591973244147,-2.0541602611902214,0.3787773098894091,-0.00040946212425475533,-0.00010242262573514622,-0.4004138620053086,-0.14276826030815912
0.33444816053511706,-2.0390580705263095,0.39100540637124753,-0.000625901728193877,-0.00010028761769530242,-0.40711260167251895,-0.14565601087917923
0.3411371237458194,-2.0256703751631986,0.3861019824052427,-0.0006483130504084667,-0.00014373037313168463,-0.4049373988103927,-0.14474710286219145
0.34782608695652173,-2.01268007707913,0.39140978385913805,-0.0005858215587980222,-0.00021170796375308997,-0.3985318591833241,-0.1420754777719568
0.35451505016722407,-1.9999912683846324,0.40437829228562666,-0.00046011617290359064,-0.00029772469734813613,-0.38896854970254446,-0.1380901698309773
0.3612040133779264,-1.9883263061656435,0.4347450098656727,-0.0002396302279533176,-0.0003875349650953794,-0.3738452072535129,-0.1320065193320368
0.36789297658862874,-1.978010099860475,0.4864365979050333,-0.0003639911343728024,-0.0003055728886798147,-0.35627214201153395,-0.12291530628931262
0.3745819397993311,-1.9707894148505436,0.5870707632844169,-0.0012798079010203052,0.00017062282470460674,-0.33307673324891357,-0.10692145518907123
0.38127090301003347,-1.9635687298406121,0.6877049286638013,-0.0021956246676678153,0.000646818538089032,-0.30988132448629296,-0.09092760408882972
0.3879598662207358,-1.9556690945777098,0.7815720166262248,-0.0023038076583117564,0.0007747780608060715,-0.2822245736453616,-0.07424347618978573
0.39464882943143814,-1.9472078634810912,0.8698416952539122,-0.001743953835083775,0.000614692924916229,-0.2508776096952964,-0.05698838366907419
0.4013377926421405,-1.938374391268361,0.9537255556048736,-0.0011655450822979079,0.0005155047051658007,-0.215648303725612,-0.03758228333560828
0.4080267558528428,-1.9280063435372892,1.019528744412434,-0.0005106430583185253,0.0006673659063559806,-0.16441392266004845,-0.00930858674169397
0.41471571906354515,-1.9173766904542242,1.0824990909982826,0.00017868850315317728,0.0009072836433769598,-0.10623835339053168,0.02315964880078083
0.4214046822742475,-1.906059802853859,1.138027590764115,0.0009584660986955843,0.001378524976937022,-0.02982835547305647,0.06664689419016463
0.4280936454849498,-1.8944212545232333,1.1896999433269442,0.0013921860226213526,0.0015920094389062724,0.06736154489000794,0.12328540105194563
0.43478260869565216,-1.88248237030538,1.2377717961005739,0.0015027905393510312,0.0015648252974818128,0.18395372178355673,0.1922032924045964
0.4414715719063545,-1.8698207365950594,1.260981041315549,0.0018747282285987315,0.001720721345032885,0.238278024986838,0.22022006757100324
0.44816053511705684,-1.8569819667050609,1.2776423399056018,0.0022605298909337936,0.0019403221096035157,0.2821469778450864,0.24095769287049218
0.45484949832775917,-1.8440236732325506,1.289100956819787,0.002569063377483275,0.0022354170398482917,0.32725601523200704,0.2615219995432234
0.46153846153846156,-1.8310018471781293,1.295400696350489,0.002770474477614592,0.0025934225053024116,0.3757637708843934,0.2837441683256386
0.4682274247491639,-1.8179569411385463,1.2986969512425337,0.0028975265977236333,0.002981369994185558,0.4273024331232735,0.3079053736521453
0.47491638795986624,-1.8049027073711428,1.2975031694454011,0.002891708735298177,0.0034019799279925633,0.48527665952668686,0.336728043700188
0.4816053511705686,-1.7919448561123674,1.293112111215511,0.002695961573480402,0.0037697105929630887,0.5501551900490649,0.374477262146775
0.4882943143812709,-1.7790713366212323,1.2878980052735853,0.002295004634888834,0.004009149705195342,0.6066323429945191,0.4190090642439977
0.49498327759197325,-1.7664196973090198,1.2851606946866598,0.0012623737310027841,0.003718199047978804,0.6070489159782119,0.47896942795339703
0.5016722408026756,-1.7539804788450124,1.306536013991512,-0.0008453516325160556,0.002540935822211994,-0.22283291361793922,6.105648630433263
0.5083612040133779,-1.7416863757010246,1.344383878401186,-0.0036875278650495675,0.0007581880919368899,-1.6199331656069922,15.535232268019028
0.5150501672240803,-1.7295384897899913,1.3639548786024014,-0.005269482670998517,0.0011925552248485318,-1.1726825207435772,5.808459849426914
0.5217391304347826,-1.7176329920453948,1.367907944049843,-0.00726822528591195,0.001511910627127465,-0.8735522826477203,-0.9232652147370378
0.5284280936454849,-1.7061979923595207,1.3419865172388614,-0.010151334897625848,0.001494054613001966,-0.9583167331582683,-0.7964869601089414
0.5351170568561873,-1.695264289074513,1.2900217840705555,-0.012503804675087136,0.00199617764389105,-0.9509450386994753,-0.7136275000246618
0.5418060200668896,-1.684670158411738,1.2204156040135614,-0.01449682491397795,0.0028505287129560793,-0.8811613414901961,-0.6605181442754274
0.5484949832775919,-1.6763418747608247,1.085517762468247,-0.015986621590112705,0.0036952926528787027,-0.8282316045689628,-0.6258393437150633
0.5551839464882943,-1.6689051803197141,0.9249282742370203,-0.01727840458910022,0.00453628414883154,-0.7819337404337566,-0.5984127910121436
0.5618729096989966,-1.6613327208221642,0.7668598057351167,-0.01858612988241803,0.00540122615347225,-0.7349620899700217,-0.5706460415288344
0.568561872909699,-1.6506243952908044,0.66702119657316,-0.020262086152118736,0.006819370791076673,-0.6724274977811359,-0.53502151511519
0.5752508361204013,-1.6395471886341837,0.5723333531513183,-0.021935499129277763,0.008307642308668053,-0.6080941352711203,-0.498204968681646
0.5819397993311036,-1.6268229916505192,0.5006427865482393,-0.023597556745784964,0.010109018198088269,-0.5357295748585822,-0.4560662593398484
0.5886287625418061,-1.6133131734439623,0.4364513752551881,-0.025067147676538136,0.011995032736936983,-0.45982882111617773,-0.41075512303902617
0.5953177257525084,-1.5991097169534558,0.37834375208552523,-0.026334315794584246,0.01391797449468666,-0.3812312466072521,-0.3628069793766838
0.6020066889632107,-1.584049127651148,0.32622381170905435,-0.02725883128724369,0.015778906825385738,-0.3005123665012927,-0.312067211102585
0.6086956521739131,-1.5689047393070332,0.30452721106258185,-0.027819351787480018,0.017466880086876573,-0.1520321174790465,-0.22477139775606447
0.6153846153846154,-1.5533924831010413,0.291501146513259,-0.027917532869828492,0.019640266072493417,-0.01683111981759329,-0.14414481190397188
0.6220735785953178,-1.5374369676956308,0.2840908507599942,-0.02818483300013798,0.022424930246630486,0.09284714373373842,-0.0779641852512312
0.6287625418060201,-1.5210496684883548,0.28283908138675595,-0.03151208643144821,0.02679692814188481,0.18353880270424772,-0.02623591219149297
0.6354515050167224,-1.504143324972594,0.2922735547899018,-0.0559304686205699,0.04310735743049314,0.2605369517870524,-0.0010498676214260906
0.6421404682274248,-1.486822118586484,0.31070318892696736,-0.010791518966700477,0.018271781508816625,0.3066287025185285,0.06403072414578517
0.6488294314381271,-1.4690698812030973,0.3426403658382591,0.003972116834852311,0.010309862406126906,0.3382517707720902,0.09366709266667902
0.6555183946488294,-1.4509397831900246,0.3923946125240757,0.007353047930383109,0.008835747745541076,0.35722772379429585,0.10619182537656459
0.6622073578595318,-1.4324114675510076,0.4674162260593293,0.011328225139799905,0.0072507833496647245,0.36327152163475845,0.11221874504940572
0.6688963210702341,-1.413489362566347,0.5828485908850481,0.015849947178056538,0.005696086319865617,0.3563625987306377,0.11189594484634344
0.6755852842809364,-1.3941723613706332,0.7675761932343476,0.02091907970320647,0.0042289034582450764,0.33752430807238315,0.10581315953831427
0.6822742474916388,-1.3742463790875046,1.0249065552152261,0.027029966413125696,0.0025858521118070845,0.30871802438857465,0.09464615195343415
0.6889632107023411,-1.3524933055674633,0.9854166370131092,0.04063958823479777,-0.002738028431578135,0.27375461369909004,0.07585789007382691
0.6956521739130435,-1.3294477326125105,0.5218525418889276,0.025931864141972405,0.0082312068954007,0.21510175918122104,0.06666203634025801
0.7023411371237458,-1.3071543383966528,-0.05269726641579403,0.017253631522209035,0.013266637975495855,0.17827878015947318,0.06005929947063064
0.7090301003344481,-1.2862956455442023,-0.8626830564382796,0.018356874429394182,0.011708106702146146,0.15309963947826066,0.05048102456296268
0.7157190635451505,-1.26642068338744,-1.7556158020912498,0.018779574818249812,0.010330011763329075,0.12806855200242565,0.04118480192498472
0.7224080267558528,-1.2424669902291203,-2.0304274912339504,0.01856324717068862,0.008844761410809648,0.09928705413687919,0.030883843171335485
0.7290969899665551,-1.2168624090524298,-1.8782799561823236,0.017572039433317914,0.007513919956848225,0.07279635939140307,0.021926656059224565
0.7357859531772575,-1.1922406266995234,-1.6377279791165644,0.016185098347881965,0.006454116766132932,0.05203093652180682,0.015321799058320002
0.7424749163879598,-1.1692874863237326,-1.2832977514285788,0.014678839522844224,0.00564674410342691,0.03690912108691561,0.010836592664617811
0.7491638795986622,-1.1485921378104007,-0.8050902503567238,0.013259474373081883,0.005052460964279493,0.026504792436091884,0.007981574324698088
0.7558528428093646,-1.1267879423640847,-0.5605387472596044,0.011790417360063503,0.004538753584050413,0.01823469242484866,0.005899856189482148
0.7625418060200669,-1.1038274064014044,-0.4658081584393619,0.010337691657835478,0.004102326433110384,0.011942034038672616,0.00448253484413125
0.7692307692307693,-1.0801872756693378,-0.422755880280676,0.00899744945764622,0.003749056921835065,0.007536412811745906,0.0036342592720834473
0.7759197324414716,-1.0560458527616883,-0.39997955018733433,0.007794916614348143,0.003459802145169467,0.004439965312273418,0.00314300927791135
0.782608695652174,-1.0314912645930883,-0.3880109637355938,0.006742497577708038,0.0032235823811378084,0.0023171000410825066,0.0028916473093372635
0.7892976588628763,-1.0065019130562003,-0.38262301472264776,0.00583743457647678,0.003030066332462149,0.0008902030362827314,0.002794396578611108
0.7959866220735786,-0.9810784087101317,-0.3813133347068973,0.005090053337799285,0.002874423506990914,-0.000005520366491549349,0.0028007388786209825
0.802675585284281,-0.955235763923988,-0.3822981570703464,0.004474486401140731,0.002745115079718125,-0.0005809201547732645,0.0028628445872565574
0.8093645484949833,-0.9290832496018163,-0.3847301185148285,0.003971735606596887,0.002634357680944339,-0.000957480941840431,0.0029577432052533886
0.8160535117056856,-0.9024864407027233,-0.3881837169326916,0.003573126280492245,0.002535758786581506,-0.0012016485834660735,0.0030782014686727027
0.822742474916388,-0.8755485019493522,-0.3922477275962223,0.003267097314068417,0.002443873645934781,-0.0013688471765927572,0.0032215990705994164
0.8294314381270903,-0.8482215890775346,-0.3964660270120083,0.0030299266028389034,0.0023511736756397406,-0.001502257283051907,0.0033875222481770605
0.8361204013377926,-0.8205420006847508,-0.4007916620052173,0.0028597213906989883,0.002249899842491717,-0.0016226102608348065,0.003584661403752483
0.842809364548495,-0.7925085876434435,-0.40528964380473487,0.002741394944570314,0.0021337415117031306,-0.0017482190906780997,0.0038186014959338673
0.8494983277591973,-0.7641147811828071,-0.40961083062533504,0.002665953705295867,0.001994671377705267,-0.0018914213157312793,0.004098557135692098
0.8561872909698997,-0.7352958204888081,-0.4136233128120445,0.002631450636953634,0.0018183391018500627,-0.002065875789292719,0.004444031486470599
0.862876254180602,-0.706189849476198,-0.41766724247031656,0.0026296836375389364,0.0016023220819040176,-0.002277425897931883,0.0048615474505388
0.8695652173913043,-0.6766541081460913,-0.4210528728051393,0.0026689673358054862,0.00131846617835675,-0.0025514621111382804,0.0053991638099955795
0.8762541806020067,-0.6468567467838795,-0.424243027248308,0.002748880549522619,0.0009653828412790066,-0.0028966215883271793,0.006074264370145442
0.882943143812709,-0.6166399689099422,-0.4272041906817436,0.00290746093229038,0.0004977902750194238,-0.0033794667198106115,0.00701835403071008
