# n,energy,berry,bcd_x,bcd_y,qmd_x,qmd_y
0.00000016666666666666665,-3.0966789551787532,-0.00000000000000000000000011313587321929132,0,0,0,0
0.006688963210702341,-3.048706751662726,-0.0000000000000000000003848552524071791,0.00000000000000000009208381156822321,-0.00000000000000000014932985265710342,-0.0000000000000000004231726991200389,-0.000000000000000000014358435410356096
0.013377926421404682,-3.001166019133741,-0.000000000000000000003933583914706775,0.00000000000000000028830809193386904,-0.0000000000000000005093149206719303,0.00000000000000000022938567808356523,-0.0000000000000000003590279309078438
0.020066889632107024,-2.954011367144004,-0.000000000000000000006486520758014488,0.00000000000000000039395862354935707,-0.0000000000000000011679365733093742,0.0000000000000000016738272079859965,-0.0000000000000000010002286317389808
0.026755852842809364,-2.919439948634785,-0.00000000000000000001169928535465609,0.00000000000000000078821645439926175,-0.0000000000000000015319849455588895,-0.000000000000000002059229330941068,-0.00000000000000000006737227620041472
0.033444816053511704,-2.8953893977333856,-0.00000000000000000001468772511440862,0.0000000000000000014498848774782689,-0.0000000000000000017306702277656351,0.000000000000000004886697232620255,0.0000000000000000006097249337742726
0.04013377926421405,-2.8718638905411074,-0.000000000000000000009106951604321017,0.000000000000000000680476018823685,-0.0000000000000000023415812431283635,-0.0000000000000000001898855543848825,-0.0000000000000000000034704824061684386
0.046822742474916385,-2.8484728060387035,-0.0000000000000000000035085396386043476,0.0000000000000000016452733326179846,-0.000000000000000002152409718561691,0.0000000000000000016174179548108942,-0.00000000000000000020067973668994354
0.05351170568561873,-2.8252108174673563,0.000000000000000000001020812746458257,0.000000000000000002454486772151388,-0.0000000000000000031418488189857943,0.0000000000000000018400752817458344,0.0000000000000000004936502261680738
0.06020066889632107,-2.8020329680031115,0.000000000000000000006629468716084353,0.0000000000000000026973789673092677,-0.0000000000000000034491900463265754,0.0000000000000000003479676157206071,0.00000000000000000024594641218744663
0.06688963210702341,-2.7789372002077353,0.00000000000000000002405093890958405,0.0000000000000000030416251557141386,-0.000000000000000004387967563430846,0.0000000000000000033389544117130198,-0.0000000000000000008901431968123649
0.07357859531772576,-2.755963774459783,0.000000000000000000023212864905722042,0.000000000000000003827185286323782,-0.0000000000000000046916838061784775,-0.0000000000000000007667753252919853,0.0000000000000000014480940178709203
0.0802675585284281,-2.7331005019396435,0.00000000000000000000022458377460577747,0.000000968707820830569,0.0000016778511633596202,0.000030295964356005458,-0.00005247414952910781
0.08695652173913043,-2.710398748246099,-0.00000000000000000002965774054193364,0.0000017515313433623789,0.0000030337412777356295,0.000021398846944438082,-0.00003706389013112143
0.09364548494983277,-2.6877517262504655,-0.000000000000000000020123165513129967,0.0000023841495098765454,0.0000041294680839181045,0.00001931734584580655,-0.000033458624472371177
0.10033444816053512,-2.6652427704480646,-0.000000000000000000025418320379717628,0.0000029734983296779217,0.000005150250183188196,0.000018419350443495184,-0.00003190325081056007
0.10702341137123746,-2.642837319954137,-0.00000000000000000002747351941481282,0.000003556161052464148,0.000006159451622735488,0.000017788490150019896,-0.00003081056872973619
0.11371237458193979,-2.620523732544301,-0.00000000000000000005793995121080559,0.000004151264068772678,0.000007190200282719882,0.000017090719204896478,-0.000029601994000762485
0.12040133779264214,-2.5983531075017146,-0.00000000000000000006966159508396183,0.000004769501467166791,0.000008261018867882741,0.000016132461935740853,-0.000027942243723919245
0.12709030100334448,-2.576279855128399,-0.00000000000000000011403746615645283,0.000005028977519704711,0.000008710444574248894,0.00004187600375273714,-0.00007253136611769245
0.13377926421404682,-2.554327810252837,-0.00000000000000000018244721959119877,0.0000052478257771188105,0.000009089500875175676,0.00003527520920243685,-0.00006109845458624464
0.14046822742474915,-2.5325124566537163,-0.00000000000000000026004243203643897,0.0000057330612727540824,0.000009929953407265731,0.000028574122109638232,-0.00004949183127551756
0.14715719063545152,-2.510815912113286,-0.00000000000000000033121132259471677,0.000006420217844551072,0.000011120143502363382,0.000023660521061644943,-0.000040981224612327726
0.15384615384615385,-2.4892620092422044,-0.0000000000000000003783657589198563,0.000007286524744195306,0.00001262063106750154,0.000017950278921665017,-0.00003109079510227281
0.1605351170568562,-2.4678211570731534,-0.000000000000000000475570384574227,0.000008331731159602639,0.000014430981683336437,0.000010670843078082017,-0.00001848244237085687
0.16722408026755853,-2.446511369419373,-0.0000000000000000005891328857542255,0.00000957694814565373,0.00001658776076959267,0.000001212864237208521,-0.0000021007424814346875
0.17391304347826086,-2.425369724356839,-0.000000000000000000657390757309941,0.000011040240371543617,0.00001912225725111239,-0.000011069244575036878,0.00001917249400549944
0.1806020066889632,-2.4043306409324456,-0.0000000000000000009186101417234367,0.000012752538873979313,0.000022088045255096077,-0.000027024090307051592,0.000046807097440153454
0.18729096989966554,-2.383451397417383,-0.0000000000000000005910808961170525,0.00001474804696779004,0.000025544366660519866,-0.00004763354079021412,0.00008250371279305721
0.1939799331103679,-2.3627700217828504,0.0000000000000000013030846813538064,0.000017054520331206134,0.000029539295712117018,-0.00007410148777030416,0.00012834754173444163
0.20066889632107024,-2.3422415582363856,0.0000000000000000015477206545656701,0.000019719779322489607,0.00003415565970016802,-0.00010811117505126302,0.00018725404805481442
0.20735785953177258,-2.321898497325327,0.0000000000000000016071168573348322,0.000022787028424405716,0.00003946829098413194,-0.00015170606538074342,0.0002627626130562384
0.2140468227424749,-2.301767988617812,0.0000000000000000033366632296970476,0.000026299698988996092,0.0000455524148722314,-0.00020748469169757646,0.000359374027813328
0.22073578595317725,-2.281896619393046,0.000000000000000005134129033761945,0.000030300365054645402,0.000052481771761763655,-0.00027868971549542776,0.00048270474678528295
0.22742474916387959,-2.2623070736583406,0.000000000000000006118617128851616,0.00003483365798104309,0.00006033366543582823,-0.0003694996995011172,0.0006399922529167319
0.23411371237458195,-2.2430574950802726,0.0000000000000000065286197159233745,0.000039927147765563687,0.00006915584853025275,-0.00048490263466115577,0.0008398759999584662
0.2408026755852843,-2.2242541718004283,0.0000000000000000049020558059303914,0.000045579035363630635,0.00007894520500782441,-0.0006303912670458523,0.001091869703176714
0.24749163879598662,-2.206152158056034,0.000000000000000003714650904581663,0.000051696898965428696,0.00008954165559954189,-0.0008098138350921295,0.0014026387070513711
0.25418060200668896,-2.189079557528411,0.000000000000000002724532971119334,0.000058102774140712906,0.00010063695686927143,-0.0010234303440062051,0.0017726333538242763
0.2608695652173913,-2.173379695534235,0.000000000000000008791323681037064,0.00006469882926775208,0.00011206165947903584,-0.0012850180529192666,0.002225716556148565
0.26755852842809363,-2.1552842394474863,0.000000000000000013098770191693652,0.00007288980386535307,0.00012624884364551058,-0.0016645800197002004,0.002883137167277396
0.27424749163879597,-2.1350433129166224,0.00000000000000001818923474536537,0.00008271496392671413,0.000143266520063547,-0.002224466377095822,0.003852888784845655
0.2809364548494983,-2.1133178554685608,0.000000000000000025922576341362788,0.00009364531824945676,0.00016219844909532018,-0.003039528652163342,0.00526461805654542
0.28762541806020064,-2.090315770141126,0.000000000000000031973810652860487,0.00010466382259524058,0.00018128305844536518,-0.004218756365104756,0.007307100368983756
0.29431438127090304,-2.066459478874928,0.0000000000000000450011248253658,0.00011312623958267325,0.00019594039462170288,-0.00587718714403822,0.010179586738961887
0.3010033444816054,-2.0423472456591454,0.000000000000000051930240951256397,0.00011395501346880421,0.00019737587309915378,-0.007895077164800769,0.013674674779070141
0.3076923076923077,-2.0206134431932035,0.00000000000000005024793807592198,0.00010505501905947724,0.00018196063059722797,-0.009208097783555745,0.01594889320220438
0.31438127090301005,-2.002368166056373,0.00000000000000004119607309863575,0.00009254562435374831,0.0001602937233946071,-0.008249653563164192,0.014288819116291512
0.3210702341137124,-1.9833210159748529,-0.00000013507092977855982,0.00008567404697173319,0.00014839180224089768,-0.004104604982178979,0.007109384374201189
0.3277591973244147,-1.9600780449980393,-0.0000007173220598009956,0.00010213449114410203,0.00017690212786663438,-0.0018973570666455985,0.003286318839469324
0.33444816053511706,-1.9347808077638367,-0.0000007173220597940284,0.00012557858041157814,0.00021750848161616757,-0.0027235826933835953,0.004717383603588463
0.3411371237458194,-1.9086108408002074,-0.0000007173220597905593,0.0001545809850095956,0.00026774211991792234,-0.003992982832211375,0.006916049139164613
0.34782608695652173,-1.8816010192705572,-0.0000007173220597989672,0.00019053436977610523,0.000330015209036266,-0.006137608292599216,0.010630649399716627
0.35451505016722407,-1.8568178207842851,-0.0000007173220597838492,0.0002278611466909147,0.00039466708313564514,-0.00932345401619518,0.016148696058185634
0.3612040133779264,-1.8369553392144564,-0.0000007173220597931701,0.0002589408683145488,0.00044849874008073956,-0.013311037680636717,0.023055393564290393
0.36789297658862874,-1.8190029936124172,-0.0000007173220598278423,0.0002853909355240156,0.0004943116003397787,-0.018900490322994748,0.03273660952727142
0.3745819397993311,-1.8015801311469302,-0.0000007173220599301336,0.00031751650594628465,0.0005499547205236654,-0.03736487784137839,0.06471786683954325
0.38127090301003347,-1.7847380397548371,-0.0000007173220603382928,0.0003777546477350306,0.0006542902426927664,-0.09174630837014602,0.1589092675089589
0.3879598662207358,-1.769038914099513,-0.0000007173220629694123,0.00043406965727669816,0.000751830699454576,-0.1387550331872716,0.2403307674349655
0.39464882943143814,-1.75189760383742,-0.0000002446877880655548,0.0004334522641966629,0.0007507608120698348,1.8347205951070995,-3.177829288236404
0.4013377926421405,-1.7348919787664896,-0.0000000009705882267366398,0.0004671555898738759,0.0008091368159437055,1.408843570473072,-2.440188643885978
0.4080267558528428,-1.7190429033487924,-0.0000000009705933173021185,0.0004944251917754914,0.0008563695527038981,-0.031130144173976793,0.05391899135617367
0.41471571906354515,-1.704338454759184,-0.000000000970592312897711,0.0004593670709106377,0.0007956471060615583,-0.04680724041971721,0.08107251856868417
0.4214046822742475,-1.68821637177587,-0.0000000009705921103548156,0.00036621757534985354,0.0006343074471136586,-0.05065497678800227,0.08773699345335677
0.4280936454849498,-1.6716430053290716,-0.000000000970591990939663,0.00024806218943517844,0.00042965631553136785,-0.04503943784331268,0.0780105946890216
0.43478260869565216,-1.654765543847614,-0.0000000009705919414317204,0.00013820504584991777,0.0002393781612624437,-0.034526391212797186,0.05980146378249792
0.4414715719063545,-1.637645068422568,-0.0000000009705919281820696,0.00005202273128525557,0.00009010601372124027,-0.023898466819410304,0.041393358754256725
0.44816053511705684,-1.6202960902995238,-0.000000000970591923995865,-0.000012053185037261568,-0.000020876728886739452,-0.016464968811683786,0.028518162526904398
0.45484949832775917,-1.602777227148394,-0.000000000970591943744848,-0.00006381512636475656,-0.00011053104115715401,-0.0118308899336665,0.020491702463912433
0.46153846153846156,-1.5851917922659624,-0.0000000009705919247614006,-0.00010941416505324593,-0.00018951089294756191,-0.008991196877813764,0.015573209813299248
0.4682274247491639,-1.5674277897246087,-0.0000000009705919256108483,-0.00015337673339906906,-0.0002656562949492589,-0.007085144906460666,0.01227183095700632
0.47491638795986624,-1.5495622496928743,-0.0000000009705919210292976,-0.00019713759848516595,-0.0003414523366568421,-0.00573762359909413,0.009937855588348187
0.4816053511705686,-1.5316199427302242,-0.0000000009705919106566903,-0.0002418125444190436,-0.0004188316128407173,-0.00477055823987876,0.008262849251890992
0.4882943143812709,-1.5135972555273836,-0.0000000009705919009809672,-0.00028817003148841536,-0.0004991251357568055,-0.004068150312411471,0.00704624303392043
0.49498327759197325,-1.4955239383756993,-0.0000000009705918963309523,-0.0003369172650418258,-0.0005835578210003217,-0.0035576901242986517,0.00616210005294844
0.5016722408026756,-1.4780397346869674,-0.0000000009705918860527462,-0.0003811853824091015,-0.0006602324494395589,-0.004482441801514329,0.007763816942236126
0.5083612040133779,-1.461986087644577,-0.0000000009705918542133818,-0.0004096192522064547,-0.0007094813565858379,-0.008479622644272291,0.014687137248873376
0.5150501672240803,-1.4461227085144603,-0.000000000970591844361139,-0.0004241865551324235,-0.0007347126653809763,-0.009800413744079129,0.016974814539860657
0.5217391304347826,-1.4304216309231261,-0.0000000009705918264876033,-0.00044314106121452523,-0.0007675428329482583,-0.0100860500815224,0.01746955118884518
0.5284280936454849,-1.414851409455642,-0.000000000970591816603838,-0.0004695718815892652,-0.000813322356722264,-0.009838884923819294,0.01704144857787894
0.5351170568561873,-1.3994128897675775,-0.0000000009705918158804568,-0.0005053355263797261,-0.0008752668065602133,-0.009341144116542396,0.016179336210670574
0.5418060200668896,-1.3841755552406647,-0.0000000009705918046903808,-0.0005534818441722664,-0.0009586586751725491,-0.008785936385304938,0.015217688211428354
0.5484949832775919,-1.3690686771691087,-0.0000000009705918090272102,-0.0006155281471319062,-0.001066126024324277,-0.008317968824964217,0.014407144620588522
0.5551839464882943,-1.3541123922164355,-0.0000000009705918056738285,-0.0006887540348314653,-0.0011929569822515095,-0.007962714737801782,0.013791826492019524
0.5618729096989966,-1.3393114287800838,-0.0000000009705917933528145,-0.0007732226839530726,-0.0013392609741767225,-0.007738322908108607,0.013403168442206756
0.568561872909699,-1.3246994272023533,-0.0000000009705917859272633,-0.0008739813630833714,-0.0015137801257338501,-0.007726285362766064,0.013382318802043318
0.5752508361204013,-1.3102715333529846,-0.00000000097059178311274,-0.0009920565137079506,-0.00171829228572424,-0.007974871892242746,0.013812883301205812
0.5819397993311036,-1.2960071326138283,-0.0000000009705917817082127,-0.0011250993311954958,-0.0019487292051940095,-0.008482061892092375,0.014691362150049698
0.5886287625418061,-1.2819294283135476,-0.0000000009705917804005648,-0.0012750030413187622,-0.0022083700473744757,-0.009299866366387183,0.01610784105013621
0.5953177257525084,-1.2680488666750327,-0.0000000009705917812966343,-0.00145703724697492,-0.0025236625402832637,-0.010894038676309656,0.018869028487002223
0.6020066889632107,-1.2543375601262245,-0.0000000009705917835104399,-0.0016608461698790172,-0.002876669949787536,-0.01329302622584927,0.02302419680958337
0.6086956521739131,-1.2407939424647265,-0.0000000009705917869810701,-0.0018857353549948316,-0.003266189444481616,-0.016501112330621362,0.028580764938141684
0.6153846153846154,-1.2275599860140285,-0.0000000009705917807907048,-0.002155030097694644,-0.003732621621051147,-0.023144690638941295,0.040087780112183974
0.6220735785953178,-1.2144923290571377,-0.0000000009705917727775731,-0.0024347381960870005,-0.004217090258758685,-0.03426714711675042,0.05935243983670206
0.6287625418060201,-1.2016112833745933,-0.0000000009705917627747892,-0.0027259090169192745,-0.004721412914126611,-0.0504591579106838,0.08739782520848878
0.6354515050167224,-1.1890712664938192,-0.0000000009705917597492742,-0.002851501909877069,-0.004938946185792031,-0.104243229818446,0.18055457039067088
0.6421404682274248,-1.1766886173443458,-0.0000000009705917585165895,-0.0025915051332910206,-0.0044886185589356215,-0.12137640849173645,0.21023010634795197
0.6488294314381271,-1.1646030112747263,-0.0000000009705917598313553,-0.0014223842262778815,-0.002463641747800302,-0.037665793239853126,0.0652390675987905
0.6555183946488294,-1.1528896156666864,-0.0000000009705917635690726,-0.0010292909605233028,-0.0017827842394015038,-0.0062892245415867645,0.010893256446200525
0.6622073578595318,-1.1414056928914567,-0.0000000009705917688005729,-0.0011146293337470539,-0.001930594637660921,-0.0071773102651759855,0.012431466040936
0.6688963210702341,-1.1304148177336704,-0.000000000970591765985197,-0.0012035379954886518,-0.002084588957030372,-0.008531058405487624,0.014776226600562992
0.6755852842809364,-1.1195161785045384,-0.0000000009705917619117218,-0.0012929520055388031,-0.002239458565345661,-0.009970941597305591,0.017270177445704686
0.6822742474916388,-1.109613644229178,-0.0000000009705917601740808,-0.0013773551949725325,-0.002385649177765136,-0.012278071742557182,0.02126624407695636
0.6889632107023411,-1.0997111099538177,-0.0000000009705917584364399,-0.0014617583844062619,-0.0025318397901846115,-0.014585201887808773,0.025262310708208037
0.6956521739130435,-1.091302340633076,-0.0000000009705917592341197,-0.0015238154938747627,-0.002639325856757203,-0.01835789818209645,0.03179681237151247
0.7023411371237458,-1.082930480064764,-0.0000000009705917600944438,-0.0015853204643131841,-0.0027458555904769266,-0.022166806477473575,0.03839403506054927
0.7090301003344481,-1.0736367363786274,-0.000000000970591761766789,-0.0016175188007650542,-0.002801624745131334,-0.029833296314647734,0.05167278497432143
0.7157190635451505,-1.063636600424104,-0.0000000009705917640613448,-0.0016272609502445416,-0.002818498643003941,-0.04045565520193387,0.0700712502634102
0.7224080267558528,-1.0532135156203442,-0.0000000009705917628042374,-0.0014594410749578486,-0.0025278260924868857,-0.07204261418077801,0.12478146807134011
0.7290969899665551,-1.0424427262544713,-0.0000000009705917586273215,-0.001145648167280589,-0.0019843208333346083,-0.12086448728188523,0.2093434328030334
0.7357859531772575,-1.0313991859963743,-0.0000000009705917596616687,-0.0012423805064514487,-0.0021518661595129303,-0.13273012352841976,0.22989531764619137
0.7424749163879598,-1.020224804200222,-0.0000000009705917631959147,-0.0015360462241719062,-0.002660510103045304,-0.12686745527205787,0.21974087835834488
0.7491638795986622,-1.0088690981371204,-0.0000000009705917644213218,-0.0012541861737486555,-0.0021723141750881305,-0.08174806593978091,0.14159180362825474
0.7558528428093646,-0.9974782905587197,-0.0000000009705917650842359,-0.0008881121771197837,-0.0015382554135968919,-0.03475384783591691,0.060195430210271975
0.7625418060200669,-0.9860129067641377,-0.0000000009705917637356149,-0.0005353231856578891,-0.0009272069560325205,-0.02423066869909079,0.041968749288185725
0.7692307692307693,-0.9745975007058921,-0.0000000009705917629588623,-0.00021087338605262827,-0.00036524341861037056,-0.018767335140943142,0.032505977986809056
0.7759197324414716,-0.9632797254337003,-0.0000000009705917632992463,0.000058216211592584314,0.0001008334362975732,-0.023188336836227477,0.04016337754339285
0.782608695652174,-0.9521733998429572,-0.0000000009705917640111986,0.00021379114930268053,0.0003702971327944403,-0.0177802200055924,0.030796244419481818
0.7892976588628763,-0.9412358651260102,-0.0000000009705917650197578,0.00027875238398959463,0.000482813291793556,-0.004525955130322331,0.007839184238567033
0.7959866220735786,-0.9312103585097355,-0.0000000009705917652617025,0.00029809193623028097,0.0005163103788710467,-0.0007156555412908455,0.0012395517582746672
