# n,energy,berry,bcd_x,bcd_y,qmd_x,qmd_y
0.00000022222222222222224,-3.0337399295890286,-0.0000000008012790055916509,0,0,0,0
0.006666666666666667,-2.985757612551439,-0.000020836527102882878,0.00000000023074472772329473,0.000000000008999767961531458,-0.000000000047844615515312527,0.00000000039729529709154096
0.013333333333333334,-2.952598702515982,-0.000017762913448927074,0.0000000010695054716316303,-0.00000000018605024086669322,-0.00000000027885410115432945,0.0000000008491577867221393
0.02,-2.928851692629853,0.0000012826729435496408,0.00000000272529465130126,-0.0000000003709368875368411,-0.00000000032467462085421916,0.0000000017778126936502873
0.02666666666666667,-2.905278504694204,0.00002887309687175321,0.000000004964861294271282,-0.0000000008968084536908181,-0.0000000006217622895289796,0.0000000024559078211231635
0.03333333333333333,-2.88188942654697,0.00006560868309475962,0.000000008353392431131933,-0.0000000016168340643863117,-0.0000000009560131746159066,0.0000000034437838179550573
0.04,-2.8586750862255728,0.00011221339368248732,0.0000000122692120101248,-0.0000000028546084189170584,-0.0000000016242901769036878,0.0000000035000275943417256
0.04666666666666667,-2.83561701744093,0.00016942420712606207,0.000000018231241838879137,-0.000000004088479678364913,-0.0000000015670485868681683,0.000000005950876233372234
0.05333333333333334,-2.812752957311973,0.00023929649144557085,0.000000027317242999577278,-0.000000004539967489086085,-0.0000000016382735198757946,0.00000000751952711133503
0.06,-2.7900251708674015,0.0003211898313818737,0.00000003493719343031037,-0.000000007186609577924533,-0.0000000019321657098899094,0.000000009248412090294945
0.06666666666666667,-2.7674637088319978,0.0004161560021094182,0.00000004599311072265867,-0.000000009689048799946178,-0.0000000026852253954822013,0.000000010037853025829805
0.07333333333333333,-2.7450778130060125,0.0005249816847876778,0.000000059166831541689314,-0.000000012078746946676998,-0.00000000274180812688907,0.000000012428554838483965
0.08,-2.722850558312861,0.000647743302674242,0.00000007017891261297058,-0.000000016989064630371976,-0.000000002855930696022857,0.000000014287246958052136
0.08666666666666667,-2.7008163027602343,0.0007872448614676626,-0.00018440339798627518,-0.000047477952248114196,-0.00005694186311568554,-0.00011507479424288544
0.09333333333333334,-2.6788813752223435,0.0009440581232757869,-0.00009420211191113221,-0.000016604667229776542,-0.000015214562777579936,-0.00005855007733812393
0.1,-2.6571465111765176,0.0011197466607829332,-0.00007187019318945508,-0.000008705369396146301,-0.000002166752011612414,-0.00004357411299639748
0.10666666666666667,-2.6355740279778206,0.0013139837607979157,-0.00005120836405702566,-0.0000014243876269732062,0.000002829744669259374,-0.00004883732248906024
0.11333333333333333,-2.614145726805961,0.0015312078859671908,0.000031208113419609516,0.000020783388205368815,-0.0000023199732860234324,-0.00009937063063640243
0.12,-2.592887971394466,0.0017682840323175765,0.000007414227235708097,0.000020400996204016677,-0.0000023896762920705783,-0.00007889515963516705
0.12666666666666668,-2.5717921498947574,0.002028361925493153,-0.0000010647702878237305,0.000024181664411153785,-0.0000026355913852880456,-0.00007118208075324847
0.13333333333333333,-2.5508576685978377,0.0023165791668466156,-0.000005838914988709054,0.000029401418273936065,-0.0000030829815356024683,-0.0000671950031631358
0.14,-2.530075925245645,0.0026308054165502166,-0.000009184354180543657,0.00003555666109965746,-0.000003882758654618936,-0.00006489305554210887
0.14666666666666667,-2.509447297083884,0.0029725966383667775,-0.000011894350516196026,0.000042506240567318916,-0.000005171380620661913,-0.00006336544028333636
0.15333333333333332,-2.488960357749531,0.003344550374383769,-0.000014215952466784132,0.000050196716591883934,-0.000007192906622561848,-0.00006205738698173576
0.16,-2.4686395773300345,0.0037483218039747568,-0.000016364794428441872,0.00005871034715724514,-0.000010279012892960385,-0.00006037168368914202
0.16666666666666666,-2.448463096827518,0.004190502094633002,-0.000018385557174831823,0.00006805475589395108,-0.000014884519585219312,-0.00005769962379852696
0.17333333333333334,-2.4284342156720458,0.004665589707556945,-0.000020284785925660304,0.00007826864512220292,-0.000021642975805674654,-0.00005334827237496913
0.18,-2.408579417224323,0.0051748901063775835,-0.000022147984105892815,0.00008945119911715093,-0.00003151419916455796,-0.00004620518445115179
0.18666666666666668,-2.3888958193354797,0.005725672806502566,-0.00002392353857713321,0.00010165024591942816,-0.000045836528547467186,-0.000034937481719422714
0.19333333333333333,-2.3693504293618433,0.006319189583082072,-0.000025583593759772695,0.00011504420071282779,-0.00006663085892908136,-0.000017724816607075676
0.2,-2.3499435208576736,0.006953099842543684,-0.000027157785937718492,0.0001297569606633445,-0.00009679516856158456,0.000008110439633417406
0.20666666666666667,-2.330702702047544,0.00762168536063051,-0.000028629145579946383,0.00014591606200510656,-0.0001404739306540985,0.00004610346004728457
0.21333333333333335,-2.311619391705539,0.008321952636597848,-0.00002996546704059337,0.00016374535864538726,-0.00020380445053550043,0.00010117518246357065
0.22,-2.292697131510564,0.009049476144000914,-0.000031149230881496324,0.00018342985368238166,-0.0002956859905295662,0.0001802359177582433
0.22666666666666666,-2.2739270609631874,0.009776963472935092,-0.00003214032329528755,0.0002051645238417077,-0.00042919653031128226,0.00029299575974089877
0.23333333333333334,-2.2553191007663353,0.010465256701993012,-0.00003295289911148671,0.00022918392794535827,-0.0006233384578918997,0.00045318815535477325
0.24,-2.236889917105346,0.011034285028469462,-0.00003343582843269029,0.00025567298853323875,-0.0009056133765221717,0.0006792649826667749
0.24666666666666667,-2.2186145392988426,0.011265562746701513,-0.000031798179781270765,0.00028442574246330225,-0.001316592732954704,0.0009954204750519484
0.25333333333333335,-2.2005296167419366,0.010611080426992726,-0.000009279724795557936,0.00031095756299375296,-0.0019071971311526391,0.001408959923665067
0.26,-2.182630452350244,0.007288643167465038,0.0003000534849492641,0.0002765942892065868,-0.0026188540105818916,0.0012702484030249405
0.26666666666666666,-2.165073573925331,-0.006777609259638105,0.003302607522932254,-0.0003349991914561083,-0.002195897759558069,-0.006428226645225936
0.2733333333333333,-2.1478214838012755,-0.08970790087275424,0.0011775967065527134,0.0010406014151633559,0.005641368796883921,-0.08147658216339643
0.28,-2.129256847926527,-0.12469253644488956,0.0001880190541579652,-0.0024389491873467424,-0.3543111343820586,-0.1334067829232182
0.2866666666666667,-2.111645937584984,-0.08199356074141895,0.000549521601181044,-0.0008952512458336231,-0.08362167899417267,-0.1604272101588327
0.29333333333333333,-2.094878295250192,-0.007868831774434294,-0.00093935949192905,0.0016081313813799806,0.07288633254023696,-0.14810051777225494
0.3,-2.077899690471663,0.07618073085561138,-0.0018665854189939613,0.0020921727150945233,0.019880368612473935,-0.12313223966402563
0.30666666666666664,-2.060205609036954,0.13650687669449227,-0.0004588357883338333,0.0010309906905157224,-0.0003414001962132075,-0.11962102047497833
0.31333333333333335,-2.0426898087331695,0.12428561757444156,-0.0006227358269869644,0.0008437739568918751,-0.025175609768371437,-0.1164711076534422
0.32,-2.026038681422235,0.09929130742392994,-0.0015447196707832525,0.0004704874167311915,-0.11668652768934619,-0.02109669591656267
0.32666666666666666,-2.009611958561816,0.08929927129721411,0.00618782839347849,0.001162039334022996,-0.23283008455561216,0.04011218276278233
0.3333333333333333,-1.9933248011764113,0.08393558092782548,0.004523087135468764,0.0007126927391221796,-0.3030521276212777,0.11869835252157468
0.34,-1.9771949466209264,0.08157934715581362,0.0018966603483130773,-0.00024219621155050305,-0.45512271378221025,0.21679051156020868
0.3466666666666667,-1.9612300387052957,0.08121089579648169,0.0005406491753048736,-0.0014851139223928935,-0.7388376791270431,0.3413325016569338
0.35333333333333333,-1.945431793010905,0.08219435664865359,-0.0013827891879449581,-0.003154779347048609,-1.1649346198583301,0.5107599756036235
0.36,-1.9298525891303082,0.08437557605684026,-0.008667263635330423,-0.0062532913200266955,-1.8623695755263565,0.8365206869263817
0.36666666666666664,-1.9144399565807808,0.08730690887192334,-0.010474788662718336,-0.008818738728751668,-2.7901235031835507,1.2453377722180843
0.37333333333333335,-1.899185975372005,0.09109473697662258,-0.011784139738471798,-0.011183104470170364,-3.962748165655674,1.713200295452574
0.38,-1.884100145933114,0.09562323231943406,-0.01342129705881271,-0.013042634817565655,-5.315752850601474,2.2413211703788125
0.38666666666666666,-1.8692241306462696,0.10060336647762115,-0.013900041852518875,-0.013404432712705727,-6.700601851250361,2.8541968906855733
0.3933333333333333,-1.8545862371752633,0.10637624745465878,-0.011683472948148543,-0.011809866154007073,-7.7001815165249035,3.1420725152579743
0.4,-1.8401117052933131,0.11275583953292803,-0.0061269594832837485,-0.009469554754720381,-8.344367759275883,3.205881553140823
0.4066666666666667,-1.825800489586082,0.11960533050690006,0.002222014085248829,-0.0063605198631701875,-8.685335128393946,3.1146264601194535
0.41333333333333333,-1.8117347447686845,0.1266403037828084,0.01180567513407639,-0.0015921107802117779,-8.816658279041983,3.031341411281152
0.42,-1.7979105448470327,0.13335815754140865,0.02831821416178263,0.014701037879120034,-6.460616662282195,7.391513749081533
0.4266666666666667,-1.7843100091944246,0.13757816263995293,0.03618231530967825,0.019274850323954314,-2.5092207932672306,8.791159352557454
0.43333333333333335,-1.7710180742674455,0.13680250516406783,0.021525508950825806,-0.008058883656742628,3.1458207636797715,1.1332173222563267
0.44,-1.7578954687492538,0.15959537231187954,0.020481245936466927,-0.013037989566613523,3.5459329355564058,0.017712127342955686
0.44666666666666666,-1.7449023374984134,0.18838106187910836,0.02340059303342032,-0.012030246022946861,2.0811324902045714,0.1855196988023924
0.4533333333333333,-1.7321074876648408,0.22008050586492284,0.029033698649985423,-0.007637648391827514,-1.1183851456730967,0.38182139595753267
0.46,-1.7196743806019907,0.25505094430489766,0.031076285064945565,0.001534160134049587,-3.330884181179061,0.766658115810855
0.4666666666666667,-1.7074610348177055,0.2911107782080378,0.03233498293007209,0.009589876848266857,-4.771484185795896,1.1802214315179405
0.47333333333333333,-1.6957904312965701,0.328000459927553,0.03455381528028088,0.0065586943917854326,-3.948682044723232,1.4868878385206474
0.48,-1.684404704759872,0.3563806408761461,0.02664738452440392,-0.0026984553306441577,-1.3223677879307814,0.7915850190722646
0.4866666666666667,-1.673319104287071,0.3757958189932478,0.008073699030641538,-0.018514839921320036,3.2039981474874293,-0.9593210835788639
0.49333333333333335,-1.6627045635418238,0.41122696551533877,0.00197337182762172,-0.020379153337186484,3.70173900801761,-0.935782819268743
0.5,-1.6522879552971341,0.45338779086543,0.001114169799219647,-0.016381007761024788,2.5067097414551736,-0.16664863557084897
0.5066666666666667,-1.6427459935037498,0.5126144754113293,-0.0019337562639026534,-0.01592814679971576,1.7021055568726713,-0.05279084152492742
0.5133333333333333,-1.6334134785303858,0.5759278282723369,-0.005505804145949002,-0.016324255827982304,0.9909943393681795,-0.09584851411357326
0.52,-1.625865618448274,0.6867369630836692,-0.009743161242691974,-0.016731087798166115,0.6043711419499767,-0.12312690531108958
0.5266666666666666,-1.6191230631661626,0.8189780180784657,-0.014280731398388504,-0.017142758371397723,0.36416939631994644,-0.14328507897684942
0.5333333333333333,-1.6123805078840512,0.9512190730732644,-0.018818301554085114,-0.017554428944629333,0.12396765068991222,-0.1634432526426096
0.54,-1.6043612075749765,1.0400948711041815,-0.02530105469912955,-0.01866407112859095,0.014214983456542804,-0.19861946833496535
0.5466666666666666,-1.5959339957653804,1.115115759450649,-0.032405280804880324,-0.019996710575938482,-0.05386007533763945,-0.2385938480527069
0.5533333333333333,-1.5868279138469157,1.163048147927509,-0.04104709580414651,-0.021373222458341924,-0.08671502844375999,-0.32362540687705305
0.56,-1.5767554881051717,1.1724211651948735,-0.051877605681240634,-0.02281218495695992,-0.06943560217114787,-0.4727940165970643
0.5666666666666667,-1.5666772740167076,1.1672003072452481,-0.06426278867978977,-0.0237570001221188,0.03386668075695153,-0.6294721319653628
0.5733333333333334,-1.5565919986078327,1.1441760878314158,-0.07854454864151143,-0.02409899503129082,0.24210997410553536,-0.7953112440864911
0.58,-1.5467728940225922,1.1029384982340797,-0.09266582369791561,-0.023445965290183814,0.5273496266218182,-0.9375554981406937
0.5866666666666667,-1.5372299389552706,1.0428047226191384,-0.10662059729998517,-0.021760607611175226,0.8924722173781126,-1.0553203273218803
0.5933333333333334,-1.5287418930020236,0.9452590753349557,-0.11861046137405588,-0.020077481940781378,1.3076087117693562,-1.1864476404726774
0.6,-1.521712022459616,0.7959999006826746,-0.12788427842566347,-0.018397441522031863,1.7918782181969275,-1.3360455927451285
0.6066666666666667,-1.5146821519172078,0.646740726030391,-0.1371580954772712,-0.01671740110328232,2.276147724624507,-1.485643545017582
0.6133333333333333,-1.5060803853150535,0.5328900287773007,-0.14209213949449973,-0.012878814413872359,3.0254770357975183,-1.6558100879018338
0.62,-1.4964667176222208,0.4418333812180934,-0.14423247394069558,-0.0076506731721644045,3.945437416279301,-1.8392175694249604
0.6266666666666667,-1.4852937862829396,0.383705893019604,-0.1371653170453935,0.0007800958133701262,5.035580599222445,-2.1126126420443447
0.6333333333333333,-1.4728582624404145,0.3522423431753955,-0.12264251942638268,0.011804149000230593,6.263526988863935,-2.4588739410789393
0.64,-1.4594108203247502,0.3325990880645122,-0.08976126253680608,0.02528135487485378,7.18180030346744,-2.672680191335789
0.6466666666666666,-1.4455059533779007,0.317844601627315,-0.05330884223547118,0.041845704811795975,7.685769498512522,-2.891218943474481
0.6533333333333333,-1.4310922119782954,0.3084993971881914,-0.014388151317351676,0.06092925023941681,7.660234202909973,-3.0644210601800412
0.66,-1.4160356249322108,0.3060941200706945,0.02133937365922138,0.07627803699009475,6.715298927408237,-2.826284795667086
0.6666666666666666,-1.4004886531721306,0.3093575697273667,0.04141760678156221,0.08664632512247426,5.404736104325376,-2.3874080673927325
0.6733333333333333,-1.3844675568809977,0.3204309490638421,0.055266426532967754,0.09256377885233333,4.024172699130917,-1.86778554616764
0.68,-1.3679664588778098,0.34225574253695734,0.05961057375658353,0.09126550288794619,2.7418497269492215,-1.3563155472728912
0.6866666666666666,-1.3510188984238374,0.38050560025209706,0.05143249212733836,0.07982284384221462,1.7059602168761583,-0.9282298501216237
0.6933333333333334,-1.3336310788149213,0.4502239478188478,0.054967460513805036,0.06250679222104212,1.0901991675788658,-0.5699141583818967
0.7,-1.3157684770227436,0.5927649142272496,0.02763317330547568,0.04902340736073166,0.5897814178214021,-0.34520943653978753
0.7066666666666667,-1.2974042460965505,0.93331549607838,0.01311206644832555,0.04122963925519727,0.32944049648886287,-0.10873918910943062
0.7133333333333334,-1.2775106324414938,0.5040937246883619,-0.012009963543593032,0.036843357178878836,0.29556832995965954,-0.0007680845126571689
0.72,-1.2586535096878275,-0.29399377831176443,0.011671712530488432,0.02001627810714178,0.10793362226481185,0.1410537303057033
0.7266666666666667,-1.2393226304724085,-0.7869727174705016,0.012716490156159492,0.01705991787329547,0.011460214182435403,0.13717319999762
0.7333333333333333,-1.218691071903347,-1.0125939533980106,0.008065971689025621,0.018021067946718865,0.011618180764097463,0.12612432121120942
0.74,-1.1977616883912015,-0.48270151658856086,-0.025958550946140878,0.04570935927495789,0.04996904961060347,0.2803129647394649
0.7466666666666667,-1.1774521603270516,-0.057489046032800584,0.008116851439468192,0.010727832245536792,0.018462900453061565,0.018386088535740253
0.7533333333333333,-1.156441610516066,0.02774181183895575,0.0029705161582996315,0.007911827951857233,0.010244211641076133,-0.003627392644417589
0.76,-1.1348294699779768,0.04655764398465059,0.001710506515538218,0.006909276640152106,0.006429302163505731,-0.0011740280350262897
0.7666666666666667,-1.1127438372697538,0.05301260275511096,0.0011897131240779055,0.006067840897773156,0.004143289383377538,0.0005323663668369901
0.7733333333333333,-1.0902361446306101,0.05515194961477045,0.0008417587143183224,0.0054396080360606565,0.00278575968587729,0.0016882810751973464
0.78,-1.0672791564454782,0.05533994976989579,0.0005928011276272916,0.004978524893801363,0.001989929860836613,0.002495525151502463
0.7866666666666666,-1.0438728869218064,0.05447418993840945,0.0004132803564818626,0.004645783419798277,0.0015359513942293764,0.0030875849771259717
0.7933333333333333,-1.020048788254176,0.05332742259874892,0.00028684702052256175,0.004410795544921649,0.0012917744186527163,0.003551439000672891
0.8,-0.9957501411007498,0.051844120382568255,0.0002048161591071248,0.004252405752758165,0.001182321461536335,0.003942626422110516
0.8066666666666666,-0.9709638437547925,0.0504429208304323,0.00015824929005927882,0.0041500688118028374,0.0011544034852713227,0.004305810821725566
0.8133333333333334,-0.9457672828070446,0.04892895650875966,0.00014049146609091193,0.004082989062247274,0.0011738266320901378,0.004668957072506738
0.82,-0.9201151459826361,0.04758661307476703,0.00014828235751758012,0.004038670136441696,0.0012262498607483205,0.005050729060847484
0.8266666666666667,-0.8939829141073246,0.04624766877513658,0.00018699173166690421,0.004009154465970406,0.001306971042022619,0.005473380914042115
0.8333333333333334,-0.8673480015178273,0.045176721848487554,0.0002533174666298464,0.003981095063193999,0.0014094326991783534,0.005948986563798975
0.84,-0.840287397968323,0.044238885917129794,0.00034951437595709704,0.003944472044360582,0.0015324257398033978,0.00648723255857273
0.8466666666666667,-0.8126840300106459,0.043352630605296934,0.0004890481774359062,0.0038900858397831607,0.001685051859970881,0.007122725671021031
0.8533333333333334,-0.7846165255747841,0.04281096688319316,0.0006724630787314585,0.0038067738791387733,0.0018670395551831029,0.007860580613185227
0.86,-0.756042131792552,0.0422854998518291,0.0009308719425278861,0.0036861890226729775,0.0020897619119987208,0.008749822825212857
0.8666666666666667,-0.7269301014736429,0.04201418871333347,0.001282021900897191,0.003516842541701331,0.0023751410920196795,0.00983176904611161
0.8733333333333333,-0.6973420069142854,0.04216130336548735,0.00178581791059073,0.0032974501025035846,0.0027512794179001326,0.011192605283306732
0.88,-0.6671213660936594,0.04209881525578739,0.0025529228971323636,0.0030447172511127735,0.003292177326932804,0.012995041369186087
0.8866666666666667,-0.6364249451126797,0.04261110079042292,0.003883063731911003,0.0027980359711375353,0.004154159529158276,0.015587079828971576
0.8933333333333333,-0.6051141438746758,0.04335114224749364,0.006649568787182396,0.0027951850008622334,0.005806658219513243,0.019831470194924785
0.9,-0.5732033685863412,0.04431812034722935,0.02185499338452367,0.006004661483855123,0.013519974965586861,0.03376962638018995
0.9066666666666666,-0.5407014876218235,0.045478393882696436,-0.02063071615257586,-0.003925730574887123,-0.0020736252597875373,0.015140551289291287
0.9133333333333333,-0.5075862285631424,0.04711837082195084,-0.07123517442693081,-0.0076652385221794815,-0.013203189070187301,0.05209101564544144
0.92,-0.4737959338609614,0.04923371742226673,0.00000038697642242521767,0.00000020710245857169352,-0.00000011924566738753326,-0.000000007516481053659455
0.9266666666666666,-0.4393130620603803,0.0517276056418118,0.0000005026813373042736,0.00000016780099649367933,-0.00000007159953590725197,-0.00000006891914795149558
