# n,energy,berry,bcd_x,bcd_y,qmd_x,qmd_y
0.0000015,-3.2499956176449243,-0.00000000000000002848565432818192,0,0,0,0
0.006688963210702341,-3.2020653535171655,-0.000006044336505418242,0.00000000000000000003230131855077455,0.000000000000000000004739710984093796,-0.00000000000000000000830649896483962,0.000000000000000000010804401515001272
0.013377926421404682,-3.1551600460736378,-0.00004601925831170551,0.00000000000000000005811355891280693,0.000000000000000000026704993817496444,0.00000000000000000010294604462125459,-0.00000000000000000009756603404738103
0.020066889632107024,-3.1093729183819185,-0.00015701749307656164,0.00000000000000000026483291522116907,-0.00000000000000000023319588572001133,-0.0000000000000000005233292484815837,-0.00000000000000000017647350673688166
0.026755852842809364,-3.064645840260401,-0.0003816432440550213,0.0000000000000000008016829448848527,-0.0000000000000000016168867858055931,0.0000000000000000011243623071465719,0.0000000000000000005011900149920913
0.033444816053511704,-3.0210760407606028,-0.0007696038431489161,-0.0000000000000000014340141790710202,0.0000000000000000012144732956992387,-0.0000000000000000007094582738583022,0.0000000000000000010436386811036087
0.04013377926421405,-2.9784228804565167,-0.0013776815960103985,-0.0000000000000000003000506939326836,0.000000000000000000048325119100845214,0.0000000000000000006526074599999658,0.0000000000000000028928018095705455
0.046822742474916385,-2.9368027859645234,-0.002274116616095124,-0.0000000000000000031335821767564942,0.000000000000000007648942685254426,0.0000000000000000044526400703678436,0.0000000000000000017704270080296127
0.05351170568561873,-2.8963559528874723,-0.0035360343065842233,0.000000000000000003540058175602983,0.000000000000000001909623974294225,-0.000000000000000009119740317647117,0.00000000000000001399945889080899
0.06020066889632107,-2.8571096550866932,-0.005245635463428289,-0.000000000000000003836525417678876,0.0000000000000000018041341261062407,-0.000000000000000006527222721004246,0.000000000000000010594225418511944
0.06688963210702341,-2.818800274318202,-0.007516526631738828,0.000000000000000014838080537868586,0.000000000000000013638434938093254,-0.000000000000000012965878543481372,0.000000000000000008828458809251375
0.07357859531772576,-2.7816829586844976,-0.010453898135867003,0.000000000000000004024265895544995,-0.000000000000000006357042830632252,-0.000000000000000024407648172492024,-0.0000000000000000034933410659012834
0.0802675585284281,-2.7493976479599858,-0.01381779800363081,-0.00000000000000004230909976763937,0.000000000000000013898094000624295,0.000000000000000011084340287709914,0.000000000000000004327858693917639
0.08695652173913043,-2.727077000660291,-0.016667460031163983,-0.00000000000000001402711909646798,-0.000000000000000002931430704318516,-0.000000000000000020063640575432206,0.000000000000000038695509931401173
0.09364548494983277,-2.707059667381254,-0.01968318180864964,-0.00000000000000001160743957305089,0.000000000000000052557818274252714,0.000000000000000013736397268456657,0.000000000000000014440066124312845
0.10033444816053512,-2.6874088611991063,-0.02313922402696489,-0.00000000000000003555336257944975,-0.00000000000000001713848090806062,0.000000000000000016338296226482312,0.0000000000000000025859577137600275
0.10702341137123746,-2.6680908708277413,-0.027107497413763056,-0.00000000000000003646493419380937,-0.00000000000000002691891117135858,0.00000000000000003280559791708851,-0.000000000000000006077041805485156
0.11371237458193979,-2.649119509226605,-0.03166169896206933,0.0000000000000000019225414344117094,0.0000000000000001167127726577615,0.00000000000000005278323397770481,-0.000000000000000027788456153856744
0.12040133779264214,-2.630500417654572,-0.03687943172590849,0.00000000000000002680053673720675,0.00000000000000016427552375573985,0.0000000000000000221246916003007,-0.00000000000000005145163822540818
0.12709030100334448,-2.6121571905647625,-0.04287681371052514,-0.000000000000000033766921187019124,-0.00000000000000005553967630503235,0.00000000000000001358780976007259,-0.00000000000000007624198984665905
0.13377926421404682,-2.594207531679049,-0.049814255775860246,-0.000000000000000054552415170828017,-0.00000000000000025940725713204753,0.00000000000000009496567790348557,-0.00000000000000003406611875857318
0.14046822742474915,-2.5803583039214844,-0.0895705482868357,0.00018746301800565243,-0.00000000000000016436240943138236,0.00000000000000002627173134506277,-0.00015388424664241859
0.14715719063545152,-2.567208218248002,-0.13503267511364572,0.00039722827185931226,-0.0000000000000000922137831689639,-0.000000000000000004763965129962981,-0.00032759573923437843
0.15384615384615385,-2.5548242720598,-0.18677568119166021,0.0006289520038648929,-0.00000000000000006412310148979296,0.00000000000000002170877158767938,-0.0005213882270085837
0.1605351170568562,-2.5431125486116883,-0.23987707580919668,0.0008568769523262553,0.00000000000000007745606780889229,-0.000000000000000033516523421207937,-0.0007111723317424897
0.16722408026755853,-2.531668281249403,-0.29351893009901897,0.0010832904854232662,0.0000000000000002641887031760089,-0.00000000000000012124687141651968,-0.0008993616281271453
0.17391304347826086,-2.521019908162114,-0.35120264968142945,0.001303916697558608,0.00000000000000035551341728548575,-0.00000000000000015109628757472362,-0.0010816920062045733
0.1806020066889632,-2.5104954174989937,-0.4095154931140044,0.0015236421024225591,0.0000000000000004319877110041924,-0.0000000000000001719364290410556,-0.0012631104327506127
0.18729096989966554,-2.5019846628588844,-0.47381305417442626,0.00170913084963668,0.00000000000000007237907920723845,-0.0000000000000000654635175353708,-0.0014153514348099903
0.1939799331103679,-2.493819376537095,-0.5391373289206958,0.001888746095851658,-0.0000000000000003620421562300261,0.00000000000000006285070077903776,-0.0015625868772254443
0.20066889632107024,-2.4851079187249585,-0.60279235060595,0.0020834743706753885,-0.000000000000000616091784402715,0.00000000000000018368295410541349,-0.0017218171789163963
0.20735785953177258,-2.4748465117323653,-0.661710293443948,0.002321091054580111,-0.0000000000000003582750303150939,0.0000000000000002832825621795641,-0.0019150870133042264
0.2140468227424749,-2.464322138263094,-0.7195073471799648,0.0025675154381807007,-0.00000000000000008540624766083016,0.00000000000000035603723442009446,-0.002115140532630591
0.22073578595317725,-2.4527274918503648,-0.7727423848992622,0.0028497871388905222,0.00000000000000024872425596456094,0.000000000000000319533080765779,-0.002342803633749902
0.22742474916387959,-2.440772589621719,-0.8247810602633316,0.003146207717256215,0.0000000000000002470285339931981,0.00000000000000020635950458445411,-0.002581000270358271
0.23411371237458195,-2.4282073506359785,-0.8747928872381803,0.0034665989845697642,-0.0000000000000003236159194679202,-0.00000000000000003670556715616183,-0.002837042569984625
0.2408026755852843,-2.4150824818394265,-0.9235652371782748,0.003811935727517993,-0.00000000000000027817362121390654,-0.000000000000000282376965157255,-0.0031110686706928977
0.24749163879598662,-2.4016429389335685,-0.9715463651983898,0.004171939316238671,-0.00000000000000009306363576265889,-0.000000000000000552432230745658,-0.003395550894257081
0.25418060200668896,-2.3876968228716997,-1.0175919745749489,0.004560048453104699,-0.0000000000000011344206445073695,-0.0000000000000010226186723495556,-0.003699280587749413
0.2608695652173913,-2.3735212364207543,-1.0628186536044522,0.0049638638048233276,-0.0000000000000011325522711753253,-0.0000000000000007505742514985219,-0.004013014106975984
0.26755852842809363,-2.3591381446326576,-1.1073328126746358,0.005381713211291634,-0.0000000000000003932282906299064,0.00000000000000003534813477633662,-0.004335585174468183
0.27424749163879597,-2.3443857687359615,-1.1507581599186478,0.005823458881563117,0.0000000000000003415834144361159,0.0000000000000007297295384661172,-0.004672549086906685
0.2809364548494983,-2.329371981687014,-1.1931394417681116,0.006282911574415686,0.000000000000000021908873055821238,0.000000000000001130212284024118,-0.005019431712326063
0.28762541806020064,-2.314142173552529,-1.2348297744669972,0.006757334952268146,-0.0000000000000007641908256252926,0.000000000000001041240362519069,-0.0053742080371203295
0.29431438127090304,-2.298676947387279,-1.2760320318821692,0.0072485947007735856,-0.0000000000000014342498277036368,0.00000000000000003869441915564553,-0.005737120046861922
0.3010033444816054,-2.2829426240728248,-1.316423845072031,0.007757968522052391,-0.0000000000000007584062275963231,-0.00000000000000008889487484645508,-0.0061067658610305135
0.3076923076923077,-2.267143289754606,-1.3561103472501965,0.008275676482890706,-0.0000000000000016721839885899217,0.00000000000000002963944887000958,-0.006477045417371048
0.31438127090301005,-2.2512831057409595,-1.3951393904638847,0.008800633847291225,-0.0000000000000031502427230933914,0.00000000000000010154399606717529,-0.006846616154767533
0.3210702341137124,-2.235313010047649,-1.4335665865333316,0.009333271490464314,-0.000000000000001957522279977003,-0.0000000000000004019371409471126,-0.007213917235213724
0.3277591973244147,-2.219130830785902,-1.4709297066735878,0.009874497404427349,-0.0000000000000024628797859457195,0.0000000000000004401154359062568,-0.007576521085376639
0.33444816053511706,-2.2029068098632463,-1.5078275791640676,0.010416249894313551,-0.0000000000000002640867914159514,0.000000000000000598484696553565,-0.007930083169106655
0.3411371237458194,-2.186654114089726,-1.544135370890784,0.010790211151353027,0.0000000000000019422281696636644,-0.00000000000000007571801606884444,-0.008316671465039656
0.34782608695652173,-2.1703615850580005,-1.5795768458880617,0.010752402798109257,-0.0000000000000007119304479653562,-0.0000000000000013908475480596512,-0.008798813432544406
0.35451505016722407,-2.154149341099104,-1.6138431246710003,0.011500420054869216,-0.0000000000000015265860990214525,0.000000000000000017748522242954025,-0.009069159048047974
0.3612040133779264,-2.13795314061223,-1.6470124487598359,0.012111494271916538,-0.000000000000001236297499569878,0.0000000000000002377299777695282,-0.009345461086830844
0.36789297658862874,-2.1217806202137255,-1.679126392389123,0.012636353060879145,-0.00000000000000023122957333605726,0.00000000000000009056437704229668,-0.00961127884502533
0.3745819397993311,-2.10568143717506,-1.709718173804498,0.01312643989288273,0.0000000000000010162610777844458,0.0000000000000002326291833039485,-0.009850091726226485
0.38127090301003347,-2.090246549854666,-1.731543522564118,0.013570248699480675,0.0000000000000006613579208567542,-0.00000000000000015993587536107292,-0.01004092023090069
0.3879598662207358,-2.0772837445809618,-1.7243281646581625,0.01392573070828243,0.00000000000000017574837064360148,0.000000000000000048698787381488493,-0.01017220193169075
0.39464882943143814,-2.0654180658403742,-1.704224347056493,0.014242012693938842,-0.0000000000000003678695504136669,0.0000000000000005241499042711962,-0.010277056362968832
0.4013377926421405,-2.0538602659899268,-1.6800580977699433,0.014530961103300145,-0.0000000000000013892981146073909,0.0000000000000013479219525424495,-0.010337656139168178
0.4080267558528428,-2.0423974443076904,-1.6551660436824511,0.014814519420613674,-0.0000000000000023200799368768003,0.0000000000000020620086029958314,-0.010390060659511834
0.41471571906354515,-2.0317651013190807,-1.6261728220673686,0.015063897289781747,-0.0000000000000014449103904505975,0.00000000000000089267488507367,-0.010394036494181191
0.4214046822742475,-2.021214891888339,-1.596444403000591,0.015310969896958473,-0.0000000000000008262023922670723,-0.00000000000000020195236187072346,-0.010394019871916597
0.4280936454849498,-2.011608135097654,-1.5582709099010754,0.015531562395782147,-0.000000000000003153419677783078,-0.0000000000000004384405107031462,-0.01034814265220028
0.43478260869565216,-2.0020013783069692,-1.52009741680156,0.01575215489460582,-0.000000000000005480636963299084,-0.0000000000000006749286595355689,-0.010302265432483962
0.4414715719063545,-1.9936963408533888,-1.4753962284048558,0.015957823919735454,-0.000000000000004412881416822333,-0.00000000000000018528818366577345,-0.010222852199865635
0.44816053511705684,-1.9855753013093622,-1.429772350873366,0.016161383513219794,-0.000000000000002865246770240922,0.0000000000000004069905070664965,-0.010138698654882844
0.45484949832775917,-1.9767424511906817,-1.387651730817985,0.016405700807524074,-0.000000000000001370192417451078,0.0000000000000007043753220129568,-0.010029822502872597
0.46153846153846156,-1.9659755215819632,-1.3550499050516052,0.016760761937370996,-0.000000000000000018005382770291074,0.00000000000000020049612486931919,-0.009853771896176367
0.4682274247491639,-1.9548318285235307,-1.3243089282198839,0.017222787510737927,-0.000000000000000740975472617735,0.00000000000000002843966044437722,-0.009654785329820904
0.47491638795986624,-1.9428197158341094,-1.2978571088061346,0.01793136041411011,-0.000000000000006247071913214519,0.0000000000000006212168743392213,-0.00940293260131844
0.4816053511705686,-1.930345250222542,-1.2744045448757626,0.01938132943455385,-0.000000000000005786020110053316,0.0000000000000010666928774582498,-0.009183930102458743
0.4882943143812709,-1.9174768836232707,-1.253507192864016,0.021462929939965496,-0.00000000000000024126390186247574,0.000000000000001386675800215056,-0.008992914315227312
0.49498327759197325,-1.903825923063828,-1.2344989247768774,0.03621910893954711,0.0000000000000028912079595560838,0.0000000000000004723929058683464,-0.010910572691149959
0.5016722408026756,-1.8898278905760375,-1.2167808111434564,0.03529208703453351,0.00000000000000367529371770312,0.0000000000000003577589130132633,-0.009447519202641589
0.5083612040133779,-1.8753647769518262,-1.201010661997582,0.0030289450010519622,0.0000000000000006931348755785547,0.0000000000000019672085360952795,-0.0013635201314027845
0.5150501672240803,-1.860348349725082,-1.1875044426236168,-0.0005267473587767213,0.0000000000000040382616354761296,0.00000000000000037474940441667516,-0.0004912297438346233
0.5217391304347826,-1.844972244340507,-1.1749317164096256,-0.0005401742116972511,0.000000000000004350766887290227,-0.0000000000000011071947445695443,-0.0005091791791413673
0.5284280936454849,-1.8292294166687169,-1.1632985664888769,-0.0005542118509731693,0.0000000000000011991067952446597,-0.0000000000000014120414763115748,-0.0005274187117327286
0.5351170568561873,-1.8131121060270556,-1.1532417429641546,-0.0005688867406563839,0.0000000000000015866309140408693,0.0000000000000023511815852524893,-0.000545809185952327
0.5418060200668896,-1.7965815560013498,-1.1444304006095871,-0.0005844411906034296,0.0000000000000032933121157216487,0.0000000000000007215842323269872,-0.0005645845404115323
0.5484949832775919,-1.7795980170561119,-1.1364620983428948,-0.000600723932700772,0.0000000000000026467841947131836,-0.0000000000000007001653643607735,-0.0005836415208646495
0.5551839464882943,-1.7621756739848595,-1.1292632988031903,-0.0006177944499959411,-0.00000000000000032339327946704845,-0.0000000000000005870823142911712,-0.0006029736957470803
0.5618729096989966,-1.7444190721835928,-1.1228618064873865,-0.0006356732901770366,-0.0000000000000022747387262474973,-0.00000000000000005963532644672818,-0.0006225288162756303
0.568561872909699,-1.726373352432283,-1.1176609412897196,-0.0006541505882817378,0.000000000000004895599235356052,-0.0000000000000025322453201976437,-0.000642012524231692
0.5752508361204013,-1.7078675365384688,-1.1138437348363635,-0.0006735915155750067,0.0000000000000013559280906251915,-0.000000000000002039808226731078,-0.0006616839785392643
0.5819397993311036,-1.6889771601594388,-1.109912061427306,-0.0006940175634450727,-0.0000000000000010074758281287083,0.0000000000000008143622536398544,-0.000681594168671837
0.5886287625418061,-1.6697760536364563,-1.1069267971353505,-0.000715167601152382,-0.0000000000000009914891414602989,0.000000000000001476889739291062,-0.0007014259833358645
0.5953177257525084,-1.650286164229555,-1.1047023521174,-0.0007370711693259791,-0.0000000000000013088723468395375,-0.0000000000000010720835212681428,-0.0007211549263045888
0.6020066889632107,-1.6303793645915357,-1.1033168508671836,-0.0007599488968363644,0.000000000000001170664773539612,-0.0000000000000026674232183513025,-0.0007409223093166379
0.6086956521739131,-1.610033659793871,-1.102346217690258,-0.0007838622488864815,0.0000000000000030965536998031263,-0.0000000000000008210160264596749,-0.0007607076059385368
0.6153846153846154,-1.5894058844997148,-1.1018319463290303,-0.0008086557920920836,0.0000000000000033014842004134595,0.000000000000002226319580222048,-0.0007803163836759221
0.6220735785953178,-1.5684830573900432,-1.1022797934428157,-0.0008343680296273763,-0.0000000000000012227936018785906,0.000000000000002181300113152708,-0.0007997216280227177
0.6287625418060201,-1.5471756013206956,-1.1029818158267417,-0.0008611360214784862,-0.000000000000007836881655653999,-0.0000000000000014304288101592482,-0.0008189610864265599
0.6354515050167224,-1.525578157053319,-1.1043130027258499,-0.0008888668013634769,-0.00000000000000210071951520593,-0.0000000000000023908849743287636,-0.0008379021706604505
0.6421404682274248,-1.503672646030413,-1.1061797966166875,-0.0009176059915442774,0.0000000000000022857013274601178,-0.0000000000000002265800468567303,-0.0008565139963146806
0.6488294314381271,-1.4813895914976434,-1.108686664593669,-0.0009474699720409351,0.000000000000004171076397960728,0.0000000000000004212090683998805,-0.0008748029212351593
0.6555183946488294,-1.4587184058580767,-1.1121307084018157,-0.0009784590507689846,0.000000000000002166729137770672,0.000000000000001237107235851691,-0.0008926806888212596
0.6622073578595318,-1.4357599208906728,-1.1148503281874738,-0.0010104488931239881,-0.0000000000000017339214716612296,-0.0000000000000010713791385577467,-0.0009100045084036037
0.6688963210702341,-1.4126472898745215,-1.1187846130782644,-0.0010433806558854434,0.0000000000000007213783617030661,-0.000000000000003069435170565552,-0.0009267266610629936
0.6755852842809364,-1.3891826855843163,-1.1228734174286592,-0.0010775138646198774,-0.00000000000000023751238694254607,0.0000000000000009790741899455635,-0.0009429058631071635
0.6822742474916388,-1.3651979087301633,-1.126935714060648,-0.0011130954071535614,-0.000000000000004290744041422739,0.000000000000002056963751163732,-0.0009585410435138966
0.6889632107023411,-1.3409692947734597,-1.132300965581101,-0.0011496703972507698,-0.000000000000004947929566403224,-0.0000000000000030610851726020884,-0.0009731927963284645
0.6956521739130435,-1.3166382015051181,-1.1375896799986611,-0.0011872046617789143,0.0000000000000018307074852779096,-0.000000000000004656263727330871,-0.0009870121687901045
0.7023411371237458,-1.2918919851798083,-1.1434314375386834,-0.0012260766243724647,0.000000000000000272905811384237,-0.000000000000002290261352764887,-0.00100001566359094
0.7090301003344481,-1.266793698470469,-1.149091885572518,-0.0012661091632029378,0.00000000000000476316266209664,-0.000000000000000535804977701711,-0.001012019405208057
0.7157190635451505,-1.2415355538965054,-1.1553425185196897,-0.0013071100230933762,0.0000000000000023098245011053796,-0.00000000000000018045860628743454,-0.0010229573162675563
0.7224080267558528,-1.2160278169086771,-1.1613819642849417,-0.0013492325773690132,0.000000000000007716734038855212,-0.0000000000000004766584362719567,-0.0010327382376448683
0.7290969899665551,-1.1900698781793895,-1.1680407790686083,-0.0013927290267419146,-0.0000000000000002787876392389824,0.00000000000000002419634778009709,-0.001041182622015356
0.7357859531772575,-1.1639273099711451,-1.1745854039127446,-0.0014372326480872216,-0.0000000000000013431148384859412,-0.0000000000000016946314696623157,-0.0010483691183139966
0.7424749163879598,-1.137488115697101,-1.1811553432214525,-0.0014827764299600557,-0.000000000000002961446222507592,0.0000000000000017666621974849803,-0.0010541562565111102
