# n,energy,berry,bcd_x,bcd_y,qmd_x,qmd_y
0.0000015,-3.2499956139701105,-0.0000000000000000031650727031300843,0,0,0,0
0.006688963210702341,-3.201680829586389,-0.0000006603953089052129,-0.0000000000000000000020461120948686235,0.0000000000000000000008478415631124815,-0.0000000000000000000015232207383347673,-0.0000000000000000000008941456159578135
0.013377926421404682,-3.1537159931255396,-0.0000049428118224005875,-0.00000000000000000000358352284706986,-0.000000000000000000006872046622679789,-0.000000000000000000006204847666256084,-0.000000000000000000008069021464474588
0.020066889632107024,-3.106167566622427,-0.000016528409617931657,0.000000000000000000019146860890104064,0.0000000000000000000027469049725150956,-0.000000000000000000028751410352843206,-0.00000000000000000003473456873262029
0.026755852842809364,-3.0591124485790804,-0.00003944406777319502,-0.0000000000000000000519837159561693,-0.00000000000000000010421685328291489,0.00000000000000000010901611905512783,-0.000000000000000000037152967876674
0.033444816053511704,-3.0123076524358487,-0.00007873491774077709,-0.00000000000000000018113303896751386,0.00000000000000000006058782795832634,-0.0000000000000000002609499354631546,0.00000000000000000007237704059318639
0.04013377926421405,-2.9660138276360493,-0.000138466877254224,-0.00000000000000000034508960167615575,0.0000000000000000001589157244088694,-0.00000000000000000008606254992808062,-0.00000000000000000028726186927288883
0.046822742474916385,-2.9201285954101626,-0.0002235981201264391,-0.00000000000000000018106533533424944,0.00000000000000000015011501159472205,-0.0000000000000000003602556262823312,0.0000000000000000002722430346288397
0.05351170568561873,-2.874656332186764,-0.00033946485920587386,0.00000000000000000007571881575537394,0.0000000000000000002768612724158395,-0.0000000000000000005111982451598382,0.000000000000000000628822349271998
0.06020066889632107,-2.8294663559956432,-0.0004917780482071665,0.0000000000000000006462960068670217,-0.0000000000000000023774959156039944,0.00000000000000000013498317885816598,-0.0000000000000000012718278249692528
0.06688963210702341,-2.784610679033724,-0.000686738306439868,-0.0000000000000000015086656784782254,-0.0000000000000000023073963296586207,0.0000000000000000029197302687901585,0.0000000000000000019956282679438917
0.07357859531772576,-2.7462450652744814,-0.0008969137345272279,-0.000000000000000002479061908284563,0.000000000000000002000095441133318,0.0000000000000000029201371623291023,-0.0000000000000000027926012811475495
0.0802675585284281,-2.721915492982894,-0.0010509075281819491,-0.0000000000000000025487796247720365,0.0000000000000000004740056429691587,0.000000000000000007805567709844736,0.0000000000000000009388148455068514
0.08695652173913043,-2.698959010594719,-0.0012138622857644286,-0.0000000000000000013136369913832674,0.0000000000000000026456876781313125,0.0000000000000000025622763382914113,-0.0000000000000000013199945747713084
0.09364548494983277,-2.6760959032646956,-0.0013938318911142506,0.00000000000000000018986334480528065,-0.0000000000000000016486409625608285,-0.0000000000000000058001429946275116,0.000000000000000005097044484515918
0.10033444816053512,-2.653307472192713,-0.0015917806645006386,-0.0000000000000000002681435412643164,-0.000000000000000006773954571386116,-0.0000000000000000007793302033774899,0.0000000000000000005221447352135189
0.10702341137123746,-2.630723712262303,-0.0018079509280980366,0.000000000000000005741859473336098,-0.000000000000000003526833048812952,0.000000000000000006290729585547864,0.0000000000000000027296713286757828
0.11371237458193979,-2.608146410940019,-0.002043282350898698,-0.000000000000000006756863400903688,0.0000000000000000025677453354631256,0.000000000000000003616945744445456,0.0000000000000000003539776963855819
0.12040133779264214,-2.585714720281634,-0.002297931606520886,-0.000000000000000006745010440990414,0.000000000000000007443294105321073,-0.0000000000000000021378022927599885,-0.000000000000000008280792576937464
0.12709030100334448,-2.563345774077004,-0.0025736907994851886,-0.000000000000000007927239257637283,-0.000000000000000001913738638030453,0.00000000000000001962347239622899,-0.000000000000000004924818954533975
0.13377926421404682,-2.541099069781872,-0.002871751347077489,-0.0000000000000000056161823169349156,-0.00000000000000000921753142526315,0.00000000000000001458193276200069,-0.0000000000000000041811406583687166
0.14046822742474915,-2.5189956009764525,-0.0031920232228789813,-0.000000000000000005003030245745452,0.000000000000000008374799978479258,0.000000000000000009432537695703974,0.0000000000000000028644615428100472
0.14715719063545152,-2.4969615811997947,-0.003537787355309139,-0.0000000000000000069051427663645565,0.000000000000000015885423020377066,0.00000000000000001121740276510222,-0.000000000000000001843105473021414
0.15384615384615385,-2.4749968555160278,-0.0039074485808308105,-0.000000000000000008100984359869263,-0.000000000000000015250914916272873,0.00000000000000001512416024622578,-0.000000000000000006512964800424851
0.1605351170568562,-2.4531451095111,-0.004304645705722455,0.000000000000000006056112205860852,-0.000000000000000020891100639775264,0.000000000000000010044207817021984,-0.000000000000000005550621063129712
0.16722408026755853,-2.431429658397739,-0.004728823801017382,-0.000000000000000013595836976323673,-0.00000000000000001432844979602474,0.000000000000000006563120266829321,-0.0000000000000000020729846503656002
0.17391304347826086,-2.4097682205655295,-0.005183129078700771,-0.00000000000000001730559125766941,-0.000000000000000012439510453819017,-0.0000000000000000007109656480934658,0.000000000000000003907852951827662
0.1806020066889632,-2.388242769980155,-0.005666687571824531,-0.00000000000000001283401674774606,0.0000000000000000008342776533810836,-0.000000000000000008827857862971697,0.000000000000000018092627152831264
0.18729096989966554,-2.36687760953664,-0.006182826350181041,0.00000000000000001689718924200826,-0.00000000000000000039451544161678096,0.00000000000000003748452997366599,0.0000000000000000537908614884591
0.1939799331103679,-2.345538123309411,-0.006731097961039732,0.00000000000000001088909874963891,-0.00000000000000003086965043513272,0.00000000000000003905264522433675,0.000000000000000017912262428715876
0.20066889632107024,-2.324326148805472,-0.007315134290971124,-0.000000000000000009830628812066079,-0.000000000000000008675233872347663,-0.000000000000000016890896280680854,-0.000000000000000032784343092822537
0.20735785953177258,-2.3031663089058543,-0.007935676731406806,-0.0000000000000000025481586075509103,0.000000000000000021544055091045683,-0.000000000000000004433492424050418,-0.00000000000000003005204324884236
0.2140468227424749,-2.2822051154045133,-0.008596330239080107,-0.000000000000000005356305789374887,0.000000000000000008508942955963647,-0.000000000000000047133558076423235,-0.000000000000000017910013886065686
0.22073578595317725,-2.2613279310705843,-0.009296530971492755,-0.000000000000000017212599437883847,-0.000000000000000016204357230002973,-0.000000000000000006312399348170924,-0.00000000000000000020829244797819213
0.22742474916387959,-2.24051699000844,-0.010039252244757104,-0.00000000000000001953729659933121,-0.0000000000000000043053437423467885,0.000000000000000024436517154031532,0.000000000000000013438979410983662
0.23411371237458195,-2.219798728555591,-0.010829958121046675,-0.000000000000000009616365283613896,0.0000000000000000057803604673356755,-0.000000000000000018692405679162764,0.000000000000000027794756283447454
0.2408026755852843,-2.1992168586522216,-0.01166335260730099,0.0005904858261546836,0.0000000000000000022745572421134077,-0.00000000000000007596378814415523,-0.0011229117201201223
0.24749163879598662,-2.1787384776309437,-0.01254457938125737,0.0007527399786927487,-0.00000000000000000437556441441368,-0.00000000000000004472339371372303,-0.0013241075347657169
0.25418060200668896,-2.1583556646295197,-0.01347524736257173,0.0005748440692272912,-0.00000000000000002097204257676106,0.000000000000000005099861654420352,-0.0008552683305192775
0.2608695652173913,-2.1381006674962513,-0.014466671306799243,0.0005109543183767387,-0.000000000000000028403526473225865,0.000000000000000017219530371421886,-0.0006470513155401587
0.26755852842809363,-2.1179684554156673,-0.015513822592001278,0.00047835537522291586,-0.00000000000000004956499187529789,0.000000000000000028737476770194354,-0.000514955481456651
0.27424749163879597,-2.097931966235504,-0.016613940130733702,0.00045968142875163097,-0.00000000000000004877614812504182,0.000000000000000025956372815048594,-0.00041872268143013975
0.2809364548494983,-2.0779870435207495,-0.01778099568665873,0.000448638844695366,-0.000000000000000016912649848230074,-0.0000000000000000006288397231614963,-0.0003431149089860653
0.28762541806020064,-2.1145086795036394,-0.013841914566540834,0.008579010054442846,-0.014892873636324662,0.34340749383661845,-0.2159900736080852
0.29431438127090304,-2.0948776114907255,-0.015710239410017715,0.00961763114157341,-0.016699064970759,0.41152628022748916,-0.2593145982855627
0.3010033444816054,-2.073327186888328,-0.018352552721797304,0.010713753777675212,-0.01861044425364079,0.46376501174462015,-0.2949894528046005
0.3076923076923077,-2.05084553272484,-0.02201142494783009,0.011994145184122994,-0.02085824566002701,0.47978477192062835,-0.312905756792396
0.31438127090301005,-2.0327863194389972,-0.02097877515168115,0.009803977912462871,-0.017131267515020882,0.6047935834413483,-0.3973170494729479
0.3210702341137124,-2.0116862347330606,-0.0225603433662269,0.008364779131789927,-0.014830361798566106,0.8065883504079461,-0.5434364513266279
0.3277591973244147,-1.987710581879966,-0.03355062649894494,0.012600208254254982,-0.02465092921690442,1.0254845448785588,-0.7561409380299091
0.33444816053511706,-1.961038853071545,-0.177294659682593,0.5258128419876563,-0.8851062076969154,3.252721909884508,-1.8530888924893638
0.3411371237458194,-1.934900959789348,-0.13491050007517774,0.2729695491703227,-0.3584860150378586,4.040613627265958,-1.9663608017152612
0.34782608695652173,-1.9118941905389115,-0.006136431765102757,-0.03268781920042381,0.08462697989698156,1.12111307213216,-0.41545528136327925
0.35451505016722407,-1.887572842372434,0.014295193860457134,0.012351540526103835,0.02992487919225082,1.0735619746337057,0.9770604686303602
0.3612040133779264,-1.8559724007146154,0.022186207137790334,-0.0015679910158799904,0.005156007166123424,-0.0321105000455804,0.10722982600476491
0.36789297658862874,-1.8306058931361624,0.02535723108462969,-0.0008839863531075906,0.002203741410555664,-0.21622862769489432,0.1531730035447318
0.3745819397993311,-1.8098136264355213,0.026590165312026307,-0.0015126030217728647,0.003061668165781881,-0.3220348744391429,0.19572854881395846
0.38127090301003347,-1.7882648422028533,0.0276281430432966,-0.0026547835657278517,0.005071242607132829,-0.3980097912975221,0.22652504036033322
0.3879598662207358,-1.7660286390827888,0.028734357118138487,-0.004182153619074815,0.007579096017377528,-0.4152647183661193,0.22525734869064382
0.39464882943143814,-1.7448641346876848,0.029330053144223617,-0.005816629666888496,0.010416790351503447,-0.43754887925523284,0.24163894955832302
0.4013377926421405,-1.7258312187382552,0.029092587121609247,-0.007222640730161818,0.012874383155242988,-0.44264052123798187,0.24627710848819656
0.4080267558528428,-1.7069995642525901,0.028939216164787476,-0.008747734230278942,0.015536949085151915,-0.432361157211406,0.24142929535216512
0.41471571906354515,-1.688454494789871,0.0288635407017958,-0.01030564234890858,0.01825478483221954,-0.39892680026728466,0.22299529019995157
0.4214046822742475,-1.670302805526628,0.028880322403525636,-0.011681346394163593,0.02083410113879873,-0.3646984524445126,0.21056609256032272
0.4280936454849498,-1.6531257355373368,0.029236971480362754,-0.012633394006481346,0.02263087104785268,-0.2494093436581062,0.15078071827451817
0.43478260869565216,-1.6357325984591784,0.03003506305445895,-0.013581039891985195,0.02434449810132821,-0.11628026976892057,0.11726004735542234
0.4414715719063545,-1.6178996471757066,0.031656139469476076,-0.01192052905165477,0.026986163986313927,-0.06912586984493439,0.3222035546703925
0.44816053511705684,-1.600513691531717,0.035085615491428176,-0.009037634155808457,0.027570409128259577,-0.11783968182473749,0.5088509312040503
0.45484949832775917,-1.5843294370599663,0.04118450679121815,-0.007840600250137898,0.020273119659435304,-0.1611794823281208,0.20692699640397041
0.46153846153846156,-1.56823820990617,0.052053694354670936,0.014460627466950362,-0.006031643238276881,-0.20242660895698125,0.2935165134038909
0.4682274247491639,-1.5524062298168175,0.0935972625281905,0.15087775962183206,-0.21755743089430662,-0.6050680235040744,0.37981111744286344
0.47491638795986624,-1.5366591135157024,0.4024226808070262,-2.267992667603947,3.96865168150284,-4.449707233206417,2.690646072796501
0.4816053511705686,-1.5207211454981513,0.6390185301006972,-4.365100948105204,7.583715014561632,-8.06193306783062,4.895302777153934
0.4882943143812709,-1.5042001590741552,0.13256797398926895,-0.16709361504361694,0.3224218536442595,-3.8244016975370707,2.067635701737138
0.49498327759197325,-1.4878384229050194,0.09203330575166874,-0.10400316904159382,0.17911119093181335,-2.3476162207547997,1.4840707224669603
0.5016722408026756,-1.4716291718929801,0.07375374780948948,-0.08311143378452057,0.14113208968806362,-1.9020792547481344,1.1466740275706786
0.5083612040133779,-1.45554406232447,0.06490142635358018,-0.07887745436635824,0.13646393764062886,-1.7482583592633978,0.9943278644690852
0.5150501672240803,-1.4395788479322262,0.060353950222237704,-0.08095731906825192,0.14038955657636,-1.6567442247757196,0.9500011536954953
0.5217391304347826,-1.4237373863584817,0.058119220662411236,-0.0852854320757503,0.14813624596435934,-1.6139532370180933,0.9262017976218065
0.5284280936454849,-1.4081083546871846,0.0575087038326315,-0.09105973697988946,0.15827680272203504,-1.600164149550294,0.9191585902218301
0.5351170568561873,-1.3926007000817935,0.05765374461319888,-0.09753682178012169,0.16960457624561173,-1.598631588031215,0.9198417856177753
0.5418060200668896,-1.3772354556024249,0.05838167275565275,-0.10458827289255387,0.1819153669795659,-1.6061748535814684,0.9264109421093499
0.5484949832775919,-1.362020638255995,0.05957626260564716,-0.1121433343655542,0.1950997098408796,-1.6207528290139623,0.9376917963950552
0.5551839464882943,-1.3469715340866177,0.06123349577743928,-0.12036173921052791,0.20945560997220508,-1.6425796149364813,0.9540462952811402
0.5618729096989966,-1.3320978699462624,0.06325263956591629,-0.12915102450308377,0.22484633389208977,-1.6689735957275431,0.9745683224302778
0.568561872909699,-1.3173719309347585,0.06552502707884997,-0.1384442244564973,0.2411781206047519,-1.6986135283323844,0.9988119013838168
0.5752508361204013,-1.3027891166299899,0.0680130694464772,-0.14823942509939042,0.25846593798791995,-1.7310071333170698,1.0268279964274625
0.5819397993311036,-1.3174965284113207,-0.2496424787229431,0.0006274738261738134,-0.0000000000000008244976217355359,0.00000000000000019370091463357697,0.0008770898727575223
0.5886287625418061,-1.3051562845697189,-0.2646061342082142,0.0006454678374328578,0.0000000000000003900476537264264,0.0000000000000008440956748931429,0.000904748397458465
0.5953177257525084,-1.2933304450618754,-0.281079027082817,0.000663685063551176,0.0000000000000004892417897365416,0.000000000000000547126443606952,0.0009316199430908098
0.6020066889632107,-1.2816728076211918,-0.2980454166720875,0.0006819752773919661,0.00000000000000022373377424217673,-0.00000000000000005961580332740064,0.0009582341590362476
0.6086956521739131,-1.2717467561073088,-0.31849861279580655,0.0006986503785672194,-0.00000000000000038141488742766513,0.000000000000000013083004263479051,0.0009813232815328347
0.6153846153846154,-1.2619363648321533,-0.3391847080612484,0.000715217599265058,-0.0000000000000010092496414306908,0.00000000000000013116466773890307,0.0010041769475363186
0.6220735785953178,-1.252093268052986,-0.3607020877916671,0.0007329623240405357,-0.0000000000000006084358999424109,0.0000000000000005486487465756593,0.001027445968825793
0.6287625418060201,-1.242240903904797,-0.3824550186970883,0.000751040704117831,0.00000000000000008385371050039724,0.000000000000001050970920803638,0.001050832684394158
0.6354515050167224,-1.2311515298119002,-0.4031370119113776,0.0007724674408336326,0.00000000000000012081896429267068,0.0000000000000004971791596444252,0.0010776093802671847
0.6421404682274248,-1.2193363370159929,-0.4231906297360364,0.0007958588342467997,-0.0000000000000002267289999617437,-0.0000000000000006762901150979376,0.0011063751556286082
0.6488294314381271,-1.2068629093868641,-0.4429881156120984,0.0008223427347557304,-0.000000000000000094221733811991,0.00000000000000033640955794127613,0.0011374035211144432
0.6555183946488294,-1.194144287057083,-0.4627261781474459,0.0008500630384906834,0.000000000000000135837301747007,0.0000000000000012017828798471608,0.0011693175669554997
0.6622073578595318,-1.1807956081892625,-0.48241095006199525,0.0008811936537909481,0.00000000000000039207685034576254,-0.000000000000000967832726533332,0.0012036258570353462
0.6688963210702341,-1.1671439912235102,-0.5023469463869186,0.0009147154267341014,0.00000000000000036549177348302277,-0.0000000000000012856444890138626,0.0012393027149956483
0.6755852842809364,-1.1532521399526268,-0.5224847474087094,0.0009502084388646972,0.00000000000000010004848844594199,-0.0000000000000002429300568413611,0.001276100109040533
0.6822742474916388,-1.139084191928603,-0.5429047337452053,0.0009894281267301443,-0.0000000000000007237851733877554,0.0000000000000002601605892627917,0.0013148717542336317
0.6889632107023411,-1.1245937355742404,-0.5633484904056781,0.0010316268221684226,-0.00000000000000037980989774432015,0.0000000000000002608216025595037,0.0013553016286346044
0.6956521739130435,-1.1098109903110869,-0.5839056423589697,0.0010768494536967093,0.0000000000000006573983601661905,-0.0000000000000001567779626431519,0.0013973397542371186
0.7023411371237458,-1.094798236990671,-0.605175406905123,0.0011266510346912824,-0.00000000000000023806617381191083,-0.0000000000000006517888871142055,0.0014413587705176876
0.7090301003344481,-1.0795897189144252,-0.6266729565301249,0.0011804962291971823,-0.00000000000000014195698297328405,0.00000000000000020141354778014147,0.0014872704426620782
0.7157190635451505,-1.0642385361551558,-0.6484999375282853,0.0012380377641032514,0.00000000000000021890663675611208,0.0000000000000004822450099785212,0.0015347954502198172
0.7224080267558528,-1.0487580958154121,-0.6708220948876032,0.0012998303978528274,0.00000000000000026857047302016094,-0.000000000000001626944524694153,0.001584063878626919
0.7290969899665551,-1.0330390094116828,-0.6937101053472589,0.0013686518377819994,0.00000000000000024273803492686755,-0.000000000000000027477667089152396,0.0016362200430326817
0.7357859531772575,-1.017123228417852,-0.717081816839072,0.0014430781505813688,0.00000000000000018948405671627592,0.0000000000000005950237983391598,0.0016906606744081173
0.7424749163879598,-1.0010864704986804,-0.7409923694598499,0.0015232886640370786,-0.00000000000000003804334411037443,-0.00000000000000001998745884124125,0.0017472919163933492
0.7491638795986622,-0.9850458307378759,-0.7655088026724581,0.001609417522167262,-0.0000000000000006593749382089872,-0.0000000000000018535594379293227,0.001805923522814497
0.7558528428093646,-0.969005190977071,-0.7908576205020814,0.0017046304720216437,0.0000000000000002696985599689789,-0.0000000000000037446255810183866,0.0018675527163817753
0.7625418060200669,-0.9528032282729416,-0.8166504407802991,0.0018081040885945898,0.000000000000001318187838248794,-0.0000000000000019400785001718005,0.0019321506302227894
0.7692307692307693,-0.9365494612681808,-0.8429675106250099,0.001919914423653174,0.0000000000000010732146092714961,0.0000000000000012308139254512877,0.001999507868746099
