# n,energy,berry,bcd_x,bcd_y,qmd_x,qmd_y
0.00000016666666666666665,-3.0217939114165713,0.0000000010299187076617334,0,0,0,0
0.006688963210702341,-2.99778649262031,0.00004488457642933795,0.000052676787699695376,0.00000000002395406580564761,0.00000000007436499218508491,0.000012419950552527943
0.013377926421404682,-2.974079211048442,0.00009282804070158642,0.00014910972547468797,0.00000000005501627287937598,0.000000000038078910102546657,0.00003350504091724652
0.020066889632107024,-2.9505218282130063,0.00014388607153007244,0.0002781806076022605,-0.00000000003529423972951112,-0.00000000007515918339967721,0.00006131852559491019
0.026755852842809364,-2.927126247683211,0.00019816937552609678,0.0004353977228230994,-0.00000000012412626639269124,-0.0000000002575697322741361,0.00009493547757642339
0.033444816053511704,-2.903889378050859,0.00025563825784587414,0.0006175982301379314,0.00000000015215405230081976,0.00000000006554972093040623,0.00013370123338537674
0.04013377926421405,-2.880812381362492,0.000316968339974268,0.0008243640569892373,0.00000000013288432664681692,0.0000000002757154999970244,0.00017751914374688194
0.046822742474916385,-2.857913585836476,0.0003817264986400571,0.0010494923124347761,0.00000000014678519385357098,0.0000000003449914433894665,0.0002250810778729857
0.05351170568561873,-2.8351521398120476,0.0004501166321079662,0.0012899284733839166,0.00000000001456376321487802,-0.00000000011753930129543528,0.00027570175548259597
0.06020066889632107,-2.8125492559005174,0.0005222155171884159,0.001541796865774317,-0.000000000029474010619589296,-0.0000000002275222986179391,0.0003284792641200992
0.06688963210702341,-2.7901118891424934,0.0005979244089428277,0.001800864091355129,-0.00000000008428038937888548,-0.00000000039569572183594603,0.0003823723385026766
0.07357859531772576,-2.767823656813093,0.0006778078699086104,0.002062590735315846,-0.00000000011025024533873456,-0.0000000007909810918578979,0.00043619222451530876
0.0802675585284281,-2.745693538665093,0.0007614806696004798,0.002321298426956162,0.00000000038160607470529057,0.000000001259925440622644,0.0004883561770338626
0.08695652173913043,-2.723749304850533,0.0008502745260535824,0.00256925563508745,-0.000000000004571928770456195,-0.000000001817978513961409,0.0005365667583184052
0.09364548494983277,-2.701947323765507,0.0009432083813858583,0.0027172475737626046,-0.000016905491657630676,0.0004657842054871481,0.000443900751191476
0.10033444816053512,-2.6803138123411583,0.001041036808186499,0.002774718766427518,-0.000045671988571090985,0.0013974614581845357,0.00016185986471552242
0.10702341137123746,-2.658839320647237,0.001144249525533376,0.0031452375977423313,-0.000001198744189007474,0.00044657956080454853,0.0003791594482274542
0.11371237458193979,-2.6375140741374024,0.0012523200361170752,0.0032771063214677527,0.0000030350530740366035,0.00038239578152491385,0.0004121248736159736
0.12040133779264214,-2.616368339813952,0.0013663607036661334,0.0033418667820659955,0.000007396367670143429,0.0003509093141080429,0.00040214063516638525
0.12709030100334448,-2.595392030457468,0.001487787010592849,0.003325794089809982,0.000012324699296826338,0.0003222985452550273,0.00035889932486681713
0.13377926421404682,-2.5745648832523793,0.0016162280793992716,0.003209540083157432,0.000018032550556621146,0.00028586107117506665,0.00027874097969120097
0.14046822742474915,-2.553934082383725,0.0017513046652487037,0.0029695634488878025,0.000024682606285396096,0.00023455907758957115,0.0001535840377820164
0.14715719063545152,-2.533488312567305,0.0018968693852991327,0.002577162589814432,0.000032409352828200244,0.0001617867534957973,-0.000028641706874040895
0.15384615384615385,-2.513206838764875,0.002052306515529164,0.001996925789078425,0.00004137980594229585,0.00006034462234955476,-0.0002849020111217308
0.1605351170568562,-2.493105163609568,0.0022217270841318254,0.0011865808500223386,0.000051728824294284905,-0.00007798283501613425,-0.0006378989844393263
0.16722408026755853,-2.473210802968159,0.0024039887726013363,0.00009608219225145113,0.00006359143614776743,-0.0002624370114567133,-0.0011183445435605215
0.17391304347826086,-2.4535004416431114,0.002604890920052548,-0.00133732786589298,0.0000771229263811891,-0.0005042320347501909,-0.0017697725757197123
0.1806020066889632,-2.4339955955789114,0.0028282432060977277,-0.00318611557077925,0.0000924524307319526,-0.0008158014793670793,-0.0026516257444752743
0.18729096989966554,-2.4147100772177343,0.003080224497656249,-0.0055351420894543795,0.00010968777369191295,-0.001211092253534008,-0.003847412597758411
0.1939799331103679,-2.395670956450061,0.0033623457007603283,-0.00847812279274441,0.00012893130724282866,-0.0017052920694627387,-0.005473966825334566
0.20066889632107024,-2.37687652633897,0.003690204552204113,-0.012118377862676069,0.0001502166083358861,-0.0023148360733049665,-0.007699488678632813
0.20735785953177258,-2.3583325382063,0.004079922940010862,-0.016552796952700077,0.00017356451992473238,-0.003056959110043264,-0.010765250551168901
0.2140468227424749,-2.3400944494833307,0.004544977484853531,-0.02182891257087434,0.00019885718288170672,-0.003946131330039527,-0.0150072163602677
0.22073578595317725,-2.322182119197305,0.0051097138560311575,-0.02790219906337181,0.0002259109407494112,-0.004995752194126714,-0.020907982957731282
0.22742474916387959,-2.304634227539511,0.005816808679576179,-0.03451042134914622,0.0002544063586848039,-0.006214437675373072,-0.02913873127392705
0.23411371237458195,-2.287516566343843,0.006726782511388728,-0.04098128940079843,0.000283866292255067,-0.007602776142355587,-0.040585706504178705
0.2408026755852843,-2.270912700486447,0.007915501798394035,-0.04604574674522649,0.00031368265705086,-0.009150722366642543,-0.05630568489624874
0.24749163879598662,-2.254980622946024,0.009499370240457343,-0.0474606094971039,0.00034307442143371325,-0.010843515683557995,-0.07784346035782738
0.25418060200668896,-2.2403689499157,0.012085710882855507,-0.037160860234800336,0.00036996917855205085,-0.012623548015434893,-0.10932190776768021
0.2608695652173913,-2.227081597109732,0.014986181138529746,-0.020966780518472818,0.0003936775488102169,-0.014380124791575206,-0.12509673902692803
0.26755852842809363,-2.2146709889629927,0.018064136779178407,-0.0011285939493986472,0.00041524635629496844,-0.01611628144237941,-0.12934333052846433
0.27424749163879597,-2.199306801804491,0.020662946916557873,-0.004202289092311089,0.00043861898040514785,-0.018501414434438646,-0.12700525894879125
0.2809364548494983,-2.1822434280512057,0.024614664611462434,-0.034945052697515674,0.00045953747132733067,-0.0213427819678244,-0.14017185135484683
0.28762541806020064,-2.1634600851435057,0.03187164737663572,-0.10675625901957128,0.0004729591727633055,-0.02467959355517665,-0.18842339110936612
0.29431438127090304,-2.1431209706061933,0.05118391931376859,0.005053182076343782,0.00047099442144064483,-0.028465330428237443,-0.353156479008509
0.3010033444816054,-2.1216370083943543,0.20330690874680393,10.47246877111908,0.0003472898607947199,-0.03828295657027028,-0.11260466544472147
0.3076923076923077,-2.0979844621699306,0.5135241125137251,-7.906835793275272,-0.006522634680917429,0.3080810544614434,7.151702784143352
0.31438127090301005,-2.0713586153530263,0.266461235741031,-2.6897156135370963,0.0004253635445061281,-0.08607144561719898,14.265087546223905
0.3210702341137124,-2.0439871823918243,0.01606215237711074,0.8363827377109332,-0.0002704014920441588,-0.04623361609874756,13.17000662531595
0.3277591973244147,-2.014965727465397,-0.15248466757861884,1.1813415888247871,-0.0006156797063278403,-0.02256704100767226,10.66798705808205
0.33444816053511706,-1.9837697354312187,-0.29286019479783765,1.157147634419393,-0.0012272691304783593,0.006945081411771019,7.821870848925766
0.3411371237458194,-1.953428509964939,-0.42556217625628784,0.9705592686479739,0.00024685286334137884,-0.005675311432494289,5.212265143654153
0.34782608695652173,-1.9324070342484305,-0.4955936969097502,0.7486492331401456,0.003249039527011878,-0.019994401558548675,3.7123452872330898
0.35451505016722407,-1.9128999333315893,-0.47568893310255367,0.5637894328670348,0.006726449993845665,0.1293247619606351,2.916535804911673
0.3612040133779264,-1.8931522741140967,-0.41330491800710994,0.41317814090452437,0.013640039646596151,0.26208431757619144,2.2448752354029775
0.36789297658862874,-1.8744144286713853,-0.35505498952344866,0.2850905440238163,0.016528365614511834,0.3382869893121549,1.702867309893444
0.3745819397993311,-1.8565216132318738,-0.3013048722418954,0.1821177008507674,0.015053779012284382,0.3075182642745772,1.2853763751421794
0.38127090301003347,-1.8393989418167218,-0.25263591943666597,0.10759773204590943,0.011267325198918106,0.22034082242892866,0.9406824083156139
0.3879598662207358,-1.823066034508315,-0.20957522110026022,0.05676538448545478,0.008075143250211473,0.1650878995064361,0.668458160695917
0.39464882943143814,-1.8074479989283656,-0.1713919346525805,0.029830133276895664,0.005922143147814862,0.12081622500029146,0.4410965832718406
0.4013377926421405,-1.7924817482321387,-0.13625307944662077,0.02017398210254194,0.004465206649081151,0.087770128114525,0.23901133956430962
0.4080267558528428,-1.7781194499429958,-0.10266363826093416,0.024653537100128655,0.004516694992860929,0.09078762063250437,0.0709658609551259
0.41471571906354515,-1.764471168343535,-0.06911088029732107,0.04397501798740089,0.007953904618698196,0.18129789671226232,-0.03313712636515234
0.4214046822742475,-1.7522320846060642,-0.025484951765088575,0.06131618646054672,0.016445089688238608,0.35656888363771866,-0.2372602479930439
0.4280936454849498,-1.740376783335337,0.02268360563013387,0.07359679961036268,0.02289256353004485,0.4777428453986195,-0.41894771954747334
0.43478260869565216,-1.7288169008955516,0.08252966297069132,0.06142544889455783,0.01221673183481352,0.20635931057529294,-0.35750819549093005
0.4414715719063545,-1.716513490220874,0.1388879095333942,0.06509715792824755,0.007429092457141611,0.06286067473793307,-0.2426265429314951
0.44816053511705684,-1.7033207818663136,0.1910745565695945,0.08771797422686657,0.009684031317901558,0.07231889867174489,-0.06382537978006503
0.45484949832775917,-1.689535343927359,0.2497212402629168,0.11229616480745189,0.01351003724265824,0.09337093344151662,0.11493372461063855
0.46153846153846156,-1.6755103047991233,0.314917238578141,0.13340250525423902,0.01849529921843617,0.12032276050954781,0.296293726646033
0.4682274247491639,-1.6612585001937725,0.38766506259451256,0.1500392443227084,0.02478186926190742,0.1531419953812573,0.4808472909982687
0.47491638795986624,-1.64678355011445,0.472261347101011,0.15878498049458473,0.03304694710424732,0.19248521448857214,0.6707115555840062
0.4816053511705686,-1.6321847799434817,0.5692128221968005,0.15865104230147933,0.043321860436237244,0.23609007431229073,0.8623856825170699
0.4882943143812709,-1.6175106549853093,0.6768902399682837,0.15000547241672088,0.05517604780487947,0.28200254935926605,1.0513692251034876
0.49498327759197325,-1.6027805779424118,0.7956954221698787,0.13178251689769802,0.06848516449301241,0.3291632147084733,1.2338451157369026
0.5016722408026756,-1.5880274973450679,0.9295205233884962,0.09803044294594018,0.08302294700287895,0.37450095425913177,1.3953971701246914
0.5083612040133779,-1.5733070213815703,1.0757845937164223,0.04775412187642705,0.09792098905708348,0.4175954746706929,1.5213217905645793
0.5150501672240803,-1.5587944983102315,1.2213011064032022,-0.027251423885288756,0.11194601611921332,0.46247647579789464,1.6301858698893434
0.5217391304347826,-1.5446538624736112,1.3542067387393908,-0.13946464105258952,0.12416849504267709,0.5083829513972516,1.7406717382144539
0.5284280936454849,-1.5324504747928236,1.3704584774163147,-0.44358511882317336,0.1273184367200657,0.5193702745806927,2.0223169197912134
0.5351170568561873,-1.520448542462277,1.381922975267886,-0.7221218592522936,0.12719034888722883,0.5657367333923966,2.2797263850177636
0.5418060200668896,-1.5086992157531343,1.3873847338422287,-0.9685790552004667,0.1229519275218198,0.6564652234404397,2.506746594354631
0.5484949832775919,-1.4973396588168257,1.3851874888170772,-1.1531669123236266,0.11593897190983381,0.7230847395360805,2.6217727056158404
0.5551839464882943,-1.486108474121237,1.3804320771007428,-1.3178180748826953,0.10800271593022344,0.7819434916819695,2.7003447055565117
0.5618729096989966,-1.475496504836344,1.3614553936368567,-1.4095434664709157,0.0951114901061158,0.812850403027626,2.625862252418323
0.568561872909699,-1.465011473076511,1.3394391986026297,-1.4899188749804915,0.08159507714129699,0.8399255957488198,2.5301436091332326
0.5752508361204013,-1.4551831211635204,1.3016988432655774,-1.5115779571222279,0.06484441334626835,0.8471783411813477,2.324564795763742
0.5819397993311036,-1.445537871114542,1.259330345019909,-1.523276662998101,0.04806654173291971,0.8508346353083418,2.1064221700195533
0.5886287625418061,-1.4368610085015103,1.1924845675905456,-1.4822970234883368,0.031144773663011986,0.8354700512095952,1.8218321702034592
0.5953177257525084,-1.428184145888479,1.1256387901611833,-1.4413173839785731,0.014223005593104542,0.8201054671108488,1.5372421703873698
0.6020066889632107,-1.4212174541587625,1.0118011966276717,-1.3641412997034161,0.001036772363324185,0.8003000126528136,1.2598173074307413
0.6086956521739131,-1.4144616440462368,0.8921690300070824,-1.282501822393596,-0.01168883109206169,0.7799469533137476,0.9832759793670618
0.6153846153846154,-1.407705833933711,0.7725368633864931,-1.2008623450837759,-0.024414434547447572,0.7595938939746817,0.7067346513033822
0.6220735785953178,-1.3997989438488918,0.67642318604643,-1.045807255109425,-0.036677783866287464,0.7299439062122405,0.351830052078588
0.6287625418060201,-1.3918641067972741,0.5808805119858043,-0.8889697140986444,-0.04892991015865007,0.7000681991633638,-0.0049771219369038056
0.6354515050167224,-1.3823930959936128,0.5486029878529742,-0.6587823712197722,-0.06089871162153506,0.6646232725415776,-0.42303964854221354
0.6421404682274248,-1.3713570333419915,0.5807799173092882,-0.353866344291695,-0.07257886211160075,0.6235044321631726,-0.9035090497869276
0.6488294314381271,-1.360369048511599,0.6332546155636904,-0.007173336724974055,-0.08068091888471049,0.5844790419800882,-1.3118682036649925
0.6555183946488294,-1.3494005526524608,0.6939572788656854,0.356454514267547,-0.08733254874967174,0.5463022591098228,-1.6909965292284728
0.6622073578595318,-1.3381015695835123,0.8133486717099891,0.7348792585181639,-0.09028149848968818,0.5049415563603816,-1.9094891202484652
0.6688963210702341,-1.3271316258947996,0.9466280790616607,1.0896159971269,-0.09183255558343674,0.462962887542321,-2.0711904115946793
0.6755852842809364,-1.3178070451650752,1.119140693220778,1.3296423857297717,-0.08851759691129674,0.41947661035229705,-2.0394497383978165
0.6822742474916388,-1.3083379062804634,1.2914234948528909,1.5242454337183056,-0.08499814715989965,0.37649031150524914,-1.973406345421658
0.6889632107023411,-1.2968854337098406,1.4605532752899617,1.0956415679083757,-0.07867308574103077,0.3403637010007584,-1.4367306334786232
0.6956521739130435,-1.2844732610276073,1.6252333054452834,0.5298725428757602,-0.07185621663123602,0.29962926583736293,-0.948586240807802
0.7023411371237458,-1.2702710010019094,1.7816134077746395,-0.29174475446438364,-0.0641219997871915,0.25030005351074563,-0.5509652307435117
0.7090301003344481,-1.252465503830072,1.7778257894770044,-0.40549007449378727,-0.05328309046318759,0.20095610529640523,-0.6761984042464004
0.7157190635451505,-1.2343527913998333,1.7713952881854182,-0.4818435478241576,-0.04291828108652894,0.15805119581041333,-0.7827634631380911
0.7224080267558528,-1.2141204574768174,1.6793953282050342,-0.5593677346611624,-0.03263409653078396,0.11927506710598601,-0.8554557679046747
0.7290969899665551,-1.1921203711365795,1.4747693458060622,-0.6317689260064778,-0.02308341927698513,0.08702480384321679,-0.8922477191545245
0.7357859531772575,-1.1719516484444161,1.2730861445948807,-0.6781717394455988,-0.015771430495560533,0.06537243070031269,-0.9006292150674691
0.7424749163879598,-1.1551097359522873,1.075131049029392,-0.6519885884035794,-0.010424363999140977,0.05141669404334182,-0.8845738499199832
0.7491638795986622,-1.139160458074074,0.9136458807261816,-0.8146813062710871,-0.005778449380618649,0.03993567089927268,-0.7489011348455052
0.7558528428093646,-1.12251160073633,0.7958542654444893,-0.8901373329009944,-0.00126857365100815,0.028697823470881907,-0.6097273168974293
0.7625418060200669,-1.104978045591021,0.7206548601653835,-0.7776993652500517,0.0030509987469126043,0.016948945558605544,-0.5168576903745732
0.7692307692307693,-1.0875241364441246,0.6710645812866709,-0.5464770750579768,0.0067141001377669035,0.005166747937481906,-0.47196917792161913
0.7759197324414716,-1.0706540795200323,0.6382436324268728,-0.28022861601507487,0.009401988823123817,-0.005685019972388196,-0.4576167037539099
0.782608695652174,-1.0538071228867818,0.6230167309813075,-0.036209399755254223,0.01099747028501523,-0.01474607903692873,-0.4086931257455804
0.7892976588628763,-1.0357093688820342,0.612136135752269,0.14666038200080558,0.011460243338866357,-0.02096533298215966,-0.3635511804581715
0.7959866220735786,-1.0164120841882107,0.6017038846436461,0.26717936286586436,0.011015987344412729,-0.02376852657405992,-0.3187406513020683
0.802675585284281,-0.9961475614281865,0.59326792872941,0.3321895090337128,0.009918593838846159,-0.023083862161779364,-0.2742421733973257
0.8093645484949833,-0.9750762835049042,0.5867686849446816,0.35516112047674564,0.008495796071452549,-0.019752991980691838,-0.2319833462585979
0.8160535117056856,-0.9532428037817143,0.582357010689315,0.34828231073407845,0.007027396431571623,-0.015090661574314122,-0.19368652669114228
0.822742474916388,-0.9306799932343197,0.5794328465860331,0.3234375264961363,0.005690299007088796,-0.010501701918386177,-0.1599550178836288
0.8294314381270903,-0.907406595506373,0.5780761152678717,0.2884117091174568,0.004548183892054426,-0.006789107678235772,-0.13077239706187738
0.8361204013377926,-0.883494920554806,0.5777669504421165,0.24790698910315692,0.0036119075848908026,-0.004216032264615676,-0.10602693845113066
0.842809364548495,-0.8589365120281778,0.5785452128631393,0.20478761249930388,0.0028594946413952015,-0.0026807979055759766,-0.08531325825996408
0.8494983277591973,-0.8337189527335996,0.5803276286864041,0.16087179576385596,0.002271000175398891,-0.0019844645799799257,-0.06843861063999968
0.8561872909698997,-0.8078088026615808,0.5829273738949394,0.11718157026407852,0.0018036740153945887,-0.0018217973472818357,-0.05471602537856265
0.862876254180602,-0.7812720778111019,0.5864349632927797,0.07414694050845289,0.0014141757578460062,-0.0019574983734021527,-0.04333676858431388
0.8695652173913043,-0.7540270895709408,0.5907330417386648,0.0319338839346087,0.0010740490041997281,-0.0023023514808052296,-0.03399088962305718
0.8762541806020067,-0.7261103961488007,0.5958606837786915,-0.00947639352037986,0.0007444211003424389,-0.0028105996433785948,-0.026186693862429625
0.882943143812709,-0.6975344165764281,0.6017825189676566,-0.050339143594291785,0.00036607762966424113,-0.0034946238027326404,-0.019356810229370577
0.8896321070234113,-0.6682244403649427,0.60865513113228,-0.09057633135652754,-0.0003139487947035236,-0.004587447010313588,-0.012972462680524393
0.8963210702341137,-0.6382679850792529,0.6163626039550434,-0.12905616494864117,-0.003794851147837534,-0.007944356772555498,-0.004584646465498312
0.903010033444816,-0.607543465055489,0.6253227043711683,-0.17566179320224662,-0.003693616757491268,-0.012231263867355078,-0.002992186949987277
0.9096989966555183,-0.5761242286931314,0.6355221104316806,-0.2272806460676719,0.01378291642517003,-0.01437583348029129,-0.00925336736798369
0.9163879598662207,-0.5439981190664868,0.647166967952204,-0.27557899439989214,-0.002664209885493929,-0.0012617406248339909,0.001182102737132311
0.9230769230769231,-0.5111012963401635,0.6608808195790734,-0.31960314798939865,-0.005997705193077923,0.002049029637807547,0.0032432259143397243
