# n,energy,berry,bcd_x,bcd_y,qmd_x,qmd_y
0.00000016666666666666665,-3.0161704947538484,0.0000000010573890738092182,0,0,0,0
0.006688963210702341,-2.9919711379544,0.000050963796562657814,0.0001764451874910297,0.000000000052350022552508406,0.0000000007639478542082659,0.000008765833842633646
0.013377926421404682,-2.9682119962014077,0.00010439147642334097,0.00048152485972748006,-0.000000000017254057591495014,0.00000000013259670856952065,0.000021117512849095183
0.020066889632107024,-2.944658451771557,0.00016013050768084712,0.0008636256673515237,-0.00000000009411237724968102,-0.00000000004581612011830377,0.000035007887653498765
0.026755852842809364,-2.9212943768910726,0.00021828016317639878,0.0012963349218597419,-0.00000000008528689042917483,0.0000000002464119373592553,0.00004819167462140933
0.033444816053511704,-2.8981373511375628,0.0002785706928255309,0.001758170042057269,-0.00000000017827181600709505,-0.0000000001450728475924099,0.000058178949807506406
0.04013377926421405,-2.8752071847972545,0.0003414795959860555,0.0022287919408122527,-0.000000000043656129457059464,0.000000000304816659137981,0.0000611492951926187
0.046822742474916385,-2.852482048649447,0.00040646212301184535,0.0026870627734155304,0.00000000009522885675267276,-0.0000000000915923137228728,0.00005437150204876677
0.05351170568561873,-2.8299492581909673,0.0004739251571322911,0.0031153934923620038,-0.0000000003101577255475488,0.0000000009721966510000467,0.000034166838146748455
0.06020066889632107,-2.8076060641083376,0.0005430711466656579,0.003495746085781637,0.00000000011369715709075201,-0.00000000035426598099762856,-0.000003740046263261669
0.06688963210702341,-2.7854622064787082,0.0006139302187669349,0.0038092930701301144,0.0000000002770918664868546,-0.000000001171643749886856,-0.00006433633692192955
0.07357859531772576,-2.763531950279716,0.0006878947962918248,0.004036287493121116,-0.0000000004228412600940099,-0.000000000008489595314178907,-0.00015347437001994108
0.0802675585284281,-2.741804504281317,0.0007628101106277115,0.004155898229434689,0.00000000019542595477761207,-0.0000000014889959121034305,-0.0002782524438873005
0.08695652173913043,-2.720276641784803,0.0008400604917898029,0.004137238522896351,0.00000000016546676982658376,-0.0000000011669400811508397,-0.00045007411434158363
0.09364548494983277,-2.6989510523303877,0.0009189464455516865,0.00394545850570346,-0.000004018739003833906,0.0000861806729992186,-0.0007259794129697263
0.10033444816053512,-2.6778376007153564,0.0010005173257909199,0.0035271923291703257,-0.000025313076540437504,0.0005832850700470683,-0.0012926882807948877
0.10702341137123746,-2.6569181759941505,0.0010832824892384105,0.0029697512515357797,-0.000013960403280493911,0.0005381091690151638,-0.0016545972488850927
0.11371237458193979,-2.636205037606299,0.0011677111457064884,0.002130341606877085,-0.000006059511294921077,0.0005766051839528884,-0.0021718594198821125
0.12040133779264214,-2.6156859363834264,0.0012540323641861357,0.0009713851453911416,0.000002608629563870463,0.0006311457550273645,-0.002835189216142942
0.12709030100334448,-2.5953790044765754,0.001342946306420555,-0.0005643412413595962,0.000013162639004788052,0.0006857239018645032,-0.003669888894007157
0.13377926421404682,-2.57528676785158,0.00143502665861732,-0.002549804367781753,0.00002627123960647534,0.0007297728551183245,-0.004713942721525033
0.14046822742474915,-2.5553877636014333,0.0015302337905513566,-0.005079080573756023,0.00004259134839772639,0.0007518376592685546,-0.006019384965828635
0.14715719063545152,-2.5357100512155966,0.0016307626672894646,-0.008262905876793045,0.00006265331728229966,0.0007370813063191829,-0.007650268448333106
0.15384615384615385,-2.516254027744442,0.0017370174455534609,-0.012242636520611899,0.00008704293627164868,0.0006670032460719635,-0.00969224004407448
0.1605351170568562,-2.4970120599732555,0.0018503496263740883,-0.01719770230771884,0.0001163740641506251,0.0005180179572690968,-0.012260291607460668
0.16722408026755853,-2.477994788872191,0.001975699902501452,-0.023348328952344705,0.00015124718067938546,0.00026117767974261183,-0.01550630525694038
0.17391304347826086,-2.4592011780837093,0.0021186211332446495,-0.03097361275613609,0.00019225161387454028,-0.00013828011399910487,-0.01963860446794363
0.1806020066889632,-2.44066577423116,0.0022820322666092727,-0.04040142139429859,0.00023986855931471066,-0.0007190107851287322,-0.024932185368640926
0.18729096989966554,-2.4223618029235197,0.0024755687931853443,-0.05206712133922595,0.00029469242762375606,-0.001524906512210071,-0.03178555901524955
0.1939799331103679,-2.40431841220904,0.0027094706513476736,-0.06646015807086915,0.0003571338951970733,-0.002598804030419499,-0.0407247847373227
0.20066889632107024,-2.38656327360332,0.0029907345631616463,-0.08413700035480924,0.00042750936891132875,-0.003979505400272226,-0.052450947062303376
0.20735785953177258,-2.3690923746085635,0.0033642189173659098,-0.10623204789606572,0.0005070476719801447,-0.0057378894906000245,-0.06844909681834746
0.2140468227424749,-2.3519944465620286,0.00387367978479045,-0.13352902633739913,0.0005955708338349513,-0.007888793711514346,-0.090493459445758
0.22073578595317725,-2.3352826208406676,0.004558758259884715,-0.16632855382540435,0.0006921294027809706,-0.010403955929400417,-0.1205100216326399
0.22742474916387959,-2.318990490714081,0.005502071874555033,-0.20455612758005753,0.0007956389048504907,-0.01324752577335911,-0.16099662647290197
0.23411371237458195,-2.303226884660455,0.006835735535152886,-0.2469037404059065,0.0009038443160974889,-0.0163462666052717,-0.21398519431954618
0.2408026755852843,-2.2881353540186584,0.008741894818157268,-0.29143354568966917,0.0010137622119410698,-0.019600839209607545,-0.2797026009395375
0.24749163879598662,-2.2747267294148243,0.012486196384446629,-0.33354952671067967,0.0011161527566411055,-0.022766214197595117,-0.358526488126167
0.25418060200668896,-2.2614217609185654,0.01475270904058451,-0.4185807793026056,0.0012175043637848086,-0.026026496836607186,-0.38257781914936023
0.2608695652173913,-2.2479040348954125,0.016035069960952383,-0.5705806029294584,0.0013192391662063293,-0.029427065809014642,-0.371788350619861
0.26755852842809363,-2.2324452020719106,0.01704586653826047,-0.9975025089090451,0.0014282614935884623,-0.03338126290013565,-0.36231150082232266
0.27424749163879597,-2.215314964981989,0.017436510467707396,-2.56231224740775,0.0015313551555378156,-0.037676614202701283,-0.36797543980103636
0.2809364548494983,-2.1968971382616425,-0.004086404018718227,-14.98057719563713,0.0016134433223944096,-0.042073153672513346,0.2587782151915822
0.28762541806020064,-2.1774316376819125,-0.27904145188665413,-7.800123092892768,0.0056604421778108285,-0.06776830105148379,11.292381107740251
0.29431438127090304,-2.1563224509357366,-0.1835217946836092,-0.10918619819923059,0.01986318740737907,-0.2358785039067713,38.1172949078352
0.3010033444816054,-2.1335658538746625,-0.12735913186708758,0.9340045486810614,0.02072493327212905,0.5044891176555992,69.40233167806313
0.3076923076923077,-2.1103230215098256,-0.2620557068074535,2.5326782689821523,0.014599632480395492,0.2408860059858241,96.60374106654487
0.31438127090301005,-2.0860817123801985,-0.34012602352710863,4.295781268041686,0.011161917848099296,-0.672544606971632,109.68241352956429
0.3210702341137124,-2.06383326405625,-0.3690602588534,5.51605367367584,-0.005082914353075382,0.5111663383405889,103.58212972453184
0.3277591973244147,-2.046053765677828,-0.3920086114541281,5.625178658438911,0.010241026875670252,0.5785329469614332,91.20118699862371
0.33444816053511706,-2.030519325757727,-0.4025327914487193,5.409628600452067,0.023875278129537547,0.7783779989713704,78.61593382676179
0.3411371237458194,-2.0162488377313554,-0.4137985184818008,5.114109380080483,0.06967947239204347,2.107582266975937,66.87522444352173
0.34782608695652173,-2.0023016416041335,-0.4325402152704485,4.770445048143943,0.12082246690862909,3.9054329401494283,56.131912480384706
0.35451505016722407,-1.9885958166781028,-0.4564576112600056,4.35861765891574,0.16479158119211185,5.456556199568208,46.401532448397376
0.3612040133779264,-1.9751306416819394,-0.48540513422176906,3.868503768024625,0.1980310489857218,6.570447148307431,37.76704948276754
0.36789297658862874,-1.96213339896198,-0.5201914597582108,3.4055122758474488,0.1761846216645891,6.076745717521576,31.230461963563652
0.3745819397993311,-1.949412525178666,-0.5578818759705414,2.9910403969820836,0.14890859279492796,5.335215598884435,25.49318030908804
0.38127090301003347,-1.9370018135418696,-0.5988004210975981,2.632875247812068,0.11708555222787209,4.355586077193666,20.627850128886532
0.3879598662207358,-1.9251977485021066,-0.6489276801498113,2.2965195931601166,0.09917472992489998,3.4921433776254656,16.801366407046075
0.39464882943143814,-1.9136881697657713,-0.7034146554373518,1.9529017355752578,0.08479736210245553,2.717809566888285,13.342361950112476
0.4013377926421405,-1.9030184168388964,-0.7702044267891576,1.5675111788259946,0.07669722350066002,2.2361948238481,10.769909989904004
0.4080267558528428,-1.8936159169377527,-0.8419345175076153,1.2458871243214675,0.06951899329538754,1.8444619284036528,8.752611707654742
0.41471571906354515,-1.8864944619563073,-0.9225571420485816,1.0390422441719558,0.06400019054589345,1.6145156120151953,7.734585434269173
0.4214046822742475,-1.879373006974862,-1.003179766589548,0.8321973640224438,0.05848138779639937,1.3845692956267377,6.7165591608836035
0.4280936454849498,-1.8713963194397514,-1.0550951242017659,0.642525608167221,0.05196089107758597,1.1928186767125064,5.817547932481478
0.43478260869565216,-1.8628446425200702,-1.0877100311081411,0.4643996758740214,0.04476693613214401,1.0267477638499272,4.998552820369971
0.4414715719063545,-1.8538476610790882,-1.1095623456545407,0.29571280063989663,0.03789200988307167,0.8662539293048782,4.203126260549058
0.44816053511705684,-1.843812904200402,-1.1063326018275548,0.14902350482036303,0.03176057517558048,0.7187573912507244,3.462625854628318
0.45484949832775917,-1.833629042411921,-1.0971719968211222,0.020217968329619786,0.02607356206315968,0.582964441121582,2.7755595821648424
0.46153846153846156,-1.823158472561885,-1.0766071683423837,-0.07419957934471719,0.021241110039382418,0.4696758673530186,2.191239737337787
0.4682274247491639,-1.812704478066886,-1.0498357888602277,-0.14356454880627434,0.017042243366821523,0.37196104899176075,1.6764623133610321
0.47491638795986624,-1.8022695153311827,-1.015938071240046,-0.18416424372561263,0.013570856972692386,0.2921279570596005,1.2415332311836402
0.4816053511705686,-1.792092622255572,-0.9728168792951937,-0.19650186862610858,0.010863834112955745,0.22986184254297737,0.8726904371337315
0.4882943143812709,-1.7821007130920055,-0.9230843159764073,-0.1885812877666666,0.008704705789776158,0.18018770882701293,0.5512181867808882
0.49498327759197325,-1.7728304914742143,-0.8538697945576394,-0.16062482358787725,0.007431825733945655,0.14792859655892152,0.278894035392267
0.5016722408026756,-1.764010235581841,-0.7725084466343404,-0.12017616548811984,0.006711513540554036,0.12652759429262722,0.03721328381398126
0.5083612040133779,-1.7561519009753153,-0.6638369350246778,-0.08053803268066224,0.010813301233862836,0.21212832520291097,-0.16067568371462987
0.5150501672240803,-1.7498095001097287,-0.5121261444097128,-0.042177242059680264,0.02251444661680587,0.4663577579080931,-0.2895512673068057
0.5217391304347826,-1.743467099244142,-0.3604153537947479,-0.0038164514386982845,0.034215591999748905,0.7205871906132753,-0.4184268508989816
0.5284280936454849,-1.7363777888272272,-0.22033958308259788,0.030514306083926294,0.03857039730915443,0.7987743514881431,-0.47672805498528703
0.5351170568561873,-1.727460891996357,-0.10873312871896129,0.05498411896438843,0.02494970439816589,0.4462099391546453,-0.36234332015312487
0.5418060200668896,-1.7183767145064741,0.001503292987350949,0.08494659659453777,0.012819425698988552,0.12620382418742193,-0.23412586703227983
0.5484949832775919,-1.707526242721979,0.09727372155169739,0.17290539290753681,0.016426233011218275,0.14997645339587007,0.04014942407443972
0.5551839464882943,-1.6963091724921466,0.1951571740071681,0.26224875332703074,0.020683978225622516,0.18135969274637015,0.3311348171379641
0.5618729096989966,-1.6841284947431534,0.2985947299662149,0.3552314537403176,0.026652719940475432,0.23274749363158748,0.6660428729850237
0.568561872909699,-1.67119154670403,0.4140369380530755,0.44444564843166606,0.033833559301283775,0.30221102094912233,1.057766494537889
0.5752508361204013,-1.6576649654839186,0.5403840922929548,0.5297264505883383,0.04156869074401956,0.38480598716231673,1.4981534716335916
0.5819397993311036,-1.643253389481994,0.6874749488815688,0.6062852541417895,0.049029320606039664,0.4843876097039887,2.0239454878659675
0.5886287625418061,-1.6279293995735873,0.8621094037206011,0.6652259537868781,0.053266118974153884,0.5885387353607083,2.641066141234255
0.5953177257525084,-1.6118274104367738,1.0639403713286324,0.7004428907910989,0.05125188734684681,0.6703954561451045,3.337449097969644
0.6020066889632107,-1.5949354669187554,1.2907343253392398,0.6825387719600055,0.03833672714667351,0.7056074195046764,4.155760751542511
0.6086956521739131,-1.5778087476226244,1.4859568097471487,0.4226693320031908,0.004291137890904646,0.6777262193132042,5.307014937294684
0.6153846153846154,-1.561651694532323,1.5418542929100179,-0.3850739553495092,-0.06124468751265167,0.605792491085579,7.09565045414916
0.6220735785953178,-1.5450568956260435,1.5887257402346784,-1.113508066154605,-0.13591806475280702,0.6482833556026729,8.924852268041116
0.6287625418060201,-1.5280963721514405,1.6353947887961993,-1.7338597675861136,-0.18173515098980397,0.5942784533633949,10.40154370941061
0.6354515050167224,-1.5107253972617118,1.6730065192515131,-2.247305589832478,-0.19737796326266044,0.48280103247086814,11.314965154115848
0.6421404682274248,-1.4929805989275777,1.699824310782043,-2.625930019676267,-0.18698937351328887,0.3610090019943051,11.487983093959071
0.6488294314381271,-1.4748683265869065,1.7166593756572797,-2.83106524584473,-0.16544249801516211,0.2567226701789559,10.856620686073576
0.6555183946488294,-1.4563756104536407,1.7267677003029303,-2.827651913297352,-0.12867787596994656,0.16290916506388242,9.465891513202942
0.6622073578595318,-1.4375165970788784,1.7322706661333602,-2.6132482614030623,-0.08443875765643906,0.08440769749090571,7.513249131451021
0.6688963210702341,-1.4182815755794655,1.7337022928590853,-2.1834839032931734,-0.06968195049510484,0.04995804975122878,5.325939315277065
0.6755852842809364,-1.3986655529158192,1.7391430513808774,-1.499319166102754,-0.05556006574227861,0.03310852469518073,3.1504181466305132
0.6822742474916388,-1.3776803791868695,1.7625078901763969,-0.6316033975581469,-0.040063484356533646,0.01693210407661266,1.1270905555186979
0.6889632107023411,-1.3535568762809123,1.8209012827681659,0.31275692818461676,-0.027642164957782944,0.001905429627294601,-0.5804161481285994
0.6956521739130435,-1.3275481971677237,1.8993483801758166,0.3096962273421371,-0.017591760495724567,-0.007805750475342622,-0.02792892569125882
0.7023411371237458,-1.295613031454752,1.6778140974743505,-0.48244459948674134,-0.010182736774500281,-0.014632642516453045,0.22578635809397782
0.7090301003344481,-1.2647682160022715,1.3551506709208803,-0.7104955790126048,-0.0049673822264023,-0.01824722198214655,-0.21051040266620463
0.7157190635451505,-1.2376900540934384,1.0964352816409675,-0.9700730813887002,-0.0019821700412090337,-0.0201721436973116,-0.35626373904859027
0.7224080267558528,-1.2141069185643811,0.8670177616688499,-1.2564955888896325,0.00011384233755366781,-0.020786191886651297,-0.39459197269029067
0.7290969899665551,-1.1943501277685822,0.649647216620279,-1.6673523850910361,0.0013260574451342973,-0.02072301350215906,-0.3157600622064888
0.7357859531772575,-1.174180917778552,0.5233958356827574,-1.54800876891522,0.0022426003843334717,-0.020176061977708833,-0.2181175697244442
0.7424749163879598,-1.1534913525062642,0.4697725951008268,-1.0256938193105802,0.0029469975589376577,-0.019153932641432826,-0.2056999340269747
0.7491638795986622,-1.133797482006708,0.4474670722678927,-0.38983561911754494,0.0034168420621692023,-0.017816184860181338,-0.26246569778277806
0.7558528428093646,-1.113750187101402,0.4346813606804216,0.11628074116188053,0.0037374365334424753,-0.0162522936950455,-0.20407280568875924
0.7625418060200669,-1.092287026489518,0.4255656776521285,0.3606312901347277,0.0039459909870576265,-0.014438286045065427,-0.13551760502614624
0.7692307692307693,-1.0698104083927835,0.4200457523863801,0.4278373030991312,0.00404798196931556,-0.012513191898293984,-0.08854879106642183
0.7759197324414716,-1.0465956284101248,0.4172778923608218,0.41768264083637835,0.004061848618242739,-0.010634627136652046,-0.057177799081846455
0.782608695652174,-1.0228257686942872,0.41615788845828283,0.38075572310030076,0.004015800129397021,-0.0089065392079035,-0.035663240818317336
0.7892976588628763,-0.9985491884073605,0.41642006508138824,0.3351233816057952,0.003928168706062051,-0.007386815029353802,-0.020864534173538563
0.7959866220735786,-0.9738236021070963,0.417594269348264,0.28884014783241035,0.0038136979736129654,-0.006103257756128143,-0.010641409607526466
0.802675585284281,-0.9485973829184492,0.4197135915029368,0.24570720071529661,0.003682222865844304,-0.005086151918791177,-0.003834930488368731
0.8093645484949833,-0.9229527716020413,0.4221894250126774,0.20652895839590887,0.0035441795279984663,-0.004291286988786709,0.0009010354446091284
0.8160535117056856,-0.896906148616658,0.4250363916171694,0.17109257761116534,0.0034040348154267355,-0.0036805046871687397,0.004255645604962046
0.822742474916388,-0.8704299185700329,0.42821601592059116,0.13937531556470892,0.003264280442315006,-0.0032397977219862785,0.006539513733459622
0.8294314381270903,-0.843581814929695,0.4315183516555074,0.11074054440674985,0.0031255200414616597,-0.002933075061408692,0.008095570989473026
0.8361204013377926,-0.816363586442397,0.43501530204859057,0.08438551440017461,0.002985841511935347,-0.0027257099822520243,0.00918139561832725
0.842809364548495,-0.7887624154465352,0.4386096941779427,0.06021518260562709,0.002841547136980359,-0.002618186399429533,0.009880059074482535
0.8494983277591973,-0.7607779752855043,0.442292570064624,0.03742894831261519,0.0026878169570527825,-0.002584317639425595,0.010363295899653839
0.8561872909698997,-0.732413604186916,0.44598902140002117,0.0157838759582479,0.002515551832419635,-0.0026269218878457916,0.010708386321502473
0.862876254180602,-0.7037091315314907,0.4497597517302948,-0.005027330285696144,0.0023159886162135565,-0.0027476658070418824,0.011001667955324642
0.8695652173913043,-0.6746705940784323,0.4535762681763902,-0.02531426871609479,0.002073552999406187,-0.0029541565048243896,0.011329285262120363
0.8762541806020067,-0.6452624509245924,0.45734523575288105,-0.045260967983994274,0.0017578750872477753,-0.0032751575569083397,0.011796343308457503
0.882943143812709,-0.615535118355826,0.4611766669314308,-0.06497913746497856,0.0013080509677645558,-0.0037553643739477774,0.012552222114213012
0.8896321070234113,-0.5854805753924128,0.46526015196765663,-0.08427388239830491,0.00048583749799153573,-0.004551058470390869,0.01398602754539157
0.8963210702341137,-0.5550862746765826,0.46931711564692735,-0.1004062716661654,-0.004754029933753198,-0.007914794450531006,0.01884134579137905
0.903010033444816,-0.5244003951075054,0.4737332117460685,-0.13192220869906807,0.002578715951988558,-0.006963503130319218,0.013015065034829543
0.9096989966555183,-0.4934265573485324,0.47838715989554065,-0.15936690751370852,0.011717715934156527,-0.009290364307232415,0.010868598029854662
0.9163879598662207,-0.4622458729240228,0.48357265251853243,-0.18762987597162234,-0.009818900685132442,0.0031152290755382325,0.019557792878792758
0.9230769230769231,-0.43082010032838336,0.48957154573181855,-0.20867304091894165,-0.010897393423492354,0.0033472329877349298,0.021033461773030497
