# n,energy,berry,bcd_x,bcd_y,qmd_x,qmd_y
0.0000013333333333333334,-3.0999941513483904,-0.00000000000000003000961478814326,0,0,0,0
0.006666666666666667,-3.052023534037681,-0.000003971139528145092,-0.00000000019082169632362807,0.000000001147905714709098,-0.0000000006992423398370281,0.00000000007020330436902229
0.013333333333333334,-3.0046308916972597,-0.00002948068547862394,-0.0000000007919980055300038,0.000000006753423719220708,-0.0000000036219870287670534,0.0000000004496008472650532
0.02,-2.9580044468157523,-0.00009922778833613628,-0.0000000018535520539440862,0.00000001980425313855317,-0.000000010840916432069858,0.0000000011848805098536682
0.02666666666666667,-2.912501655849967,-0.000240395758282675,-0.000000005198498913593498,0.000000038880957353490075,-0.00000002179060927255835,0.0000000028310738120436676
0.03333333333333333,-2.8828024661308387,-0.00038395708119187965,-0.000000005710213662497701,0.00000005935788085059373,-0.00000003152242284497096,0.000000003976603204179539
0.04,-2.859601484385666,-0.0005297337266038026,-0.00000000561551672580135,0.00000008298076141906374,-0.000000042595268013845857,0.000000004174107211306482
0.04666666666666667,-2.836521307099691,-0.0007080189996206546,-0.000000009644977002389044,0.00000010464570040972705,-0.000000053273678556569475,0.000000005719586732932851
0.05333333333333334,-2.813676685287823,-0.0009224377833444347,-0.000000016498477177987923,0.00000012277196565004176,-0.00000006061420054337333,0.000000007593671133161176
0.06,-2.790944542357789,-0.0011729643207032162,-0.00000002316789919528452,0.00000015480870214331803,-0.0000000720990943013556,0.000000010825487031951266
0.06666666666666667,-2.7683963717483975,-0.0014614505247801024,-0.00000002324650203789533,0.00000020015188091040577,-0.00000009002734714897432,0.000000009941431651074928
0.07333333333333333,-2.7460243666409054,-0.001791322800794763,-0.000000029549159237591362,0.0000002400877218181281,-0.00000010229714511723851,0.000000010854888179762953
0.08,-2.723785774013203,-0.0021644262091457082,-0.000000036142992659502386,0.00000028657613203772215,-0.00000011400321410863012,0.000000012364706588936093
0.08666666666666667,-2.7017219934597727,-0.0025854524150985044,-0.000000044558897774886445,0.00000033726195432298185,-0.00000012543679809210133,0.000000015092125013067922
0.09333333333333334,-2.6798059286578257,-0.0030522035504233253,-0.00000004623884847409135,0.0000004186101964865002,-0.00000014961942132746363,0.00000001434537598891139
0.1,-2.658065881656678,-0.0035747670962070033,-0.00000006416782957652609,0.0000004872568396858226,-0.0000001643778846370251,0.000000020081478204781355
0.10666666666666667,-2.6364936248787494,-0.004154403252326351,-0.00000008595349343369047,0.0000005354747179048447,-0.00000017569078418912167,0.000000022731627854081957
0.11333333333333333,-2.6150432547503546,-0.00479491378045741,-0.00000009265086686630097,0.000000639281537807252,-0.00000019990906153288556,0.000000026960175041414254
0.12,-2.59381520771324,-0.0055017326627778175,-0.00000009944878995521165,0.0000007387303568068215,-0.0000002119576709680041,0.000000029856778130613185
0.12666666666666668,-2.5727779194478093,-0.00627524897525003,-0.00000011966787742496918,0.0000008344792486953621,-0.00000023055029011580995,0.00000002922848873355651
0.13333333333333333,-2.5517817415121784,-0.007119981999683866,-0.00000012150099964569805,0.000000964605494460766,-0.0000002502508304445493,0.000000031545250558515535
0.14,-2.5309739487001126,-0.008045865644488418,-0.00000014805761112800085,0.0000010682091833806578,-0.0000002753187285430984,0.00000003069384040043285
0.14666666666666667,-2.5103528551149927,-0.009060097932211485,-0.00000016267513879072322,0.0000012329459502256927,-0.00000030284093311192966,0.00000004048998661372949
0.15333333333333332,-2.4898794771942243,-0.01016940912366801,-0.0000002032163380107751,0.0000013396563030333615,-0.00000032152458892452477,0.00000004579469282045097
0.16,-2.469594517247736,-0.011355893454287891,-0.00000023102529128794638,0.0000015021502156788195,-0.0000003411258514763327,0.00000004737655261576666
0.16666666666666666,-2.4493998190031445,-0.012648756938616978,-0.00000021706898405443795,0.0000017093577190302276,-0.0000003699188504728332,0.00000004197554974591919
0.17333333333333334,-2.4293733101365746,-0.014058529260330736,-0.0000002289129684148041,0.0000019225907674682115,-0.00000040629095968646446,0.000000035650977274289414
0.18,-2.4094869417876548,-0.015575180609493026,-0.0000002733437700518009,0.000002141761892894011,-0.0000004398532896722827,0.00000005699391385176335
0.18666666666666668,-2.389797007810678,-0.01720962787723961,-0.0000003180515507673401,0.0000023023305283057765,-0.00000044294082047079825,0.00000006310020680990152
0.19333333333333333,-2.370263718532538,-0.0189862897751154,-0.00000036161524677102555,0.000002504063492845948,-0.00000047449132676808164,0.0000000620801353507434
0.2,-2.350776788521273,-0.020899921795490262,-0.0000003583402951572826,0.0000028327393977851344,-0.0000005276776282414352,0.000000049625716589749594
0.20666666666666667,-2.3315977545543904,-0.02298537422044178,-0.0000004049230712952982,0.0000031172770209047352,-0.0000005693010084237162,0.00000006361977237912086
0.21333333333333335,-2.3125184898992663,-0.025203973420701298,-0.00000046911567879671485,0.0000033438273566559853,-0.0000005437588191060728,0.00000008261354047684736
0.22,-2.2935335583799685,-0.02760854511197416,-0.000000495213470760305,0.0000036355031123612075,-0.0000005967931295459014,0.00000008440610178457379
0.22666666666666666,-2.2748009083480896,-0.030215340054829287,-0.0000005252284861222027,0.000004045306991064132,-0.0000006526411005483693,0.00000007195289467327088
0.23333333333333334,-2.2562306418338816,-0.03300729557446522,-0.0000006386439563387648,0.000004297521151968999,-0.0000006675977040906533,0.0000000893190300639371
0.24,-2.2377231893388747,-0.03602836287652053,-0.0000006886466308475905,0.000004633217337821933,-0.000000715003318570288,0.00000007218030283707852
0.24666666666666667,-2.2194028000473063,-0.03928795909858992,-0.000000719210910340866,0.00000502622894658062,-0.0000007704692992665725,0.000000051872370807452185
0.25333333333333335,-2.201232638315049,-0.04278769370346769,-0.0000007950231838200672,0.000005412859823395756,-0.0000007755021359158277,0.00000006676292180216427
0.26,-2.1832060197606076,-0.04654817699290105,-0.001322493929109494,-0.0014587381742188325,-0.0005193627196928697,-0.0004692702677462765
0.26666666666666666,-2.165366459031773,-0.050597190475490224,-0.002733674282634388,-0.0029532077137930605,-0.0010539107272364546,-0.0009762686319422359
0.2733333333333333,-2.1476931350907615,-0.05495131877197084,-0.0011349836652311477,-0.001008739976640147,-0.00038029462766089953,-0.00042517424928101576
0.28,-2.1301007261465,-0.05960795895315403,-0.0009385612495865109,-0.0008200323443807988,-0.0003212925634419269,-0.0003642732801782482
0.2866666666666667,-2.1127893926667736,-0.06469716007229319,-0.000862019521414227,-0.0007458184563339236,-0.0003010612918246319,-0.00034397216347476476
0.29333333333333333,-2.095516383602043,-0.07016998490491168,-0.0008198867842626292,-0.0007059060922620191,-0.00029252293646063747,-0.00033516049067142557
0.3,-2.0784921955979385,-0.07605916087729198,-0.0007950449415193791,-0.0006846449472047035,-0.0002899706185502645,-0.0003316189081566825
0.30666666666666664,-2.06157316536826,-0.08240178630274096,-0.0007821298916505493,-0.0006725383097914111,-0.00029017639732290776,-0.0003319518475063728
0.31333333333333335,-2.044809436498082,-0.08923738438682795,-0.0007776802626909621,-0.0006659452586320613,-0.00029197558240540465,-0.0003350383377115389
0.32,-2.028386145291812,-0.09657471870840287,-0.0007775018292408932,-0.0006646412275556506,-0.0002953439252865746,-0.000339084408231332
0.32666666666666666,-2.0117630473928503,-0.10461182912866764,-0.0007807922420500996,-0.000667249847686671,-0.00029961467690403214,-0.0003437855679690134
0.3333333333333333,-1.995689001180975,-0.11330568778349262,-0.0007862206879716739,-0.0006721279421135922,-0.0003043751942423398,-0.0003487948012911841
0.34,-1.9796775281689694,-0.12264214432271642,-0.0007948534303284278,-0.0006781517083100748,-0.0003092871851100759,-0.0003548435544662354
0.3466666666666667,-1.9637852638192905,-0.1327264793322982,-0.0008050056560232735,-0.0006854212205850034,-0.00031428856172340387,-0.0003611228871523601
0.35333333333333333,-1.9481645919904342,-0.14361526810932917,-0.0008145172853431588,-0.0006941352999395426,-0.000319371132833789,-0.0003665980915012643
0.36,-1.9325865284009183,-0.15547981104067018,-0.0008275681583713537,-0.0007034275434307149,-0.0003244753996964607,-0.0003732786753176869
0.36666666666666664,-1.917284878949738,-0.1685700498031069,-0.0008404831060207741,-0.0007138984116538469,-0.00032963113921599235,-0.00037951508016684883
0.37333333333333335,-1.9021999734392347,-0.18266165936689147,-0.0008534339685879016,-0.0007249738762557325,-0.00033472085178908056,-0.0003854108721001763
0.38,-1.8872974199227763,-0.19769737687284908,-0.000866622890303255,-0.0007363882029079278,-0.00033966655982507066,-0.0003910559149058863
0.38666666666666666,-1.8725605535790453,-0.21459882399238722,-0.0008815845815956982,-0.0007485441394523888,-0.00034420294171272066,-0.000396882985084917
0.3933333333333333,-1.8580690094561723,-0.23284907354551176,0.02693830711204056,0.02331369289522675,-0.009240201170656753,-0.011270740123289947
0.4,-1.8437587774521738,-0.2525359990297554,0.05273229664288657,0.04599708883769076,-0.01839966989514171,-0.022070612236109597
0.4066666666666667,-1.8296282137539868,-0.2742792023387788,0.04401328186499601,0.03973718547988403,-0.018746645668035234,-0.021136892743724874
0.41333333333333333,-1.815874440559515,-0.2985760773679156,0.040616416425927795,0.03667638152000894,-0.018255355139442438,-0.02039516258365369
0.42,-1.8022402147885597,-0.32493875600233246,0.03818779537895998,0.0343409452211948,-0.01749156367855474,-0.019517174743611698
0.4266666666666667,-1.7886998851623788,-0.3539215984661266,0.035947302926425916,0.03234510370936415,-0.01650854758812785,-0.018375503379902954
0.43333333333333335,-1.7757977140323549,-0.3869102409997265,0.033329021993072964,0.030011490968030817,-0.015224778569444332,-0.016926095187890275
0.44,-1.763061071694825,-0.4226312932711122,0.03049207151322972,0.027477686150992154,-0.013828929511439866,-0.01536063035865107
0.44666666666666666,-1.7505173439697015,-0.4631320953749449,0.02728658708913104,0.024604510401321042,-0.012270361610586415,-0.013625772514718148
0.4533333333333333,-1.738469127192802,-0.509424948026774,0.023841743744853264,0.021503763385906934,-0.010657700864557538,-0.011839893569571188
0.46,-1.7266258514245136,-0.5581543320741106,0.020298622188333504,0.018309560398606872,-0.009023249004466237,-0.0100335255325023
0.4666666666666667,-1.7153774379024858,-0.6194859003371068,0.01656736294774886,0.014934051925437588,-0.007404031753115086,-0.008250431958168951
0.47333333333333333,-1.704315429499647,-0.6852197065179071,0.012871773586870597,0.011589871931595627,-0.005820520161146675,-0.0065070399558710395
0.48,-1.693947115690504,-0.7673361563569375,0.009308927376061121,0.008362278847129465,-0.004369884870998266,-0.00491139478585988
0.4866666666666667,-1.684130512630936,-0.861147831968741,0.006014354713209045,0.005373755141467627,-0.0030430546545165233,-0.0034540017219981765
0.49333333333333335,-1.675852012267153,-0.9875643794319081,0.0034676961840564824,0.0030517278858058026,-0.002061377976741888,-0.0023820387722501414
0.5,-1.6675735119033699,-1.113980926895075,0.0009210376549039206,0.0007297006301439793,-0.001079701298967253,-0.0013100758225021067
0.5066666666666667,-1.6599035911997164,-1.26007745148009,-0.00002721575476098139,-0.00009919286639031453,-0.0007429838225816376,-0.0009243421867570042
0.5133333333333333,-1.652363210496491,-1.4103629827174788,-0.0006352386023032686,-0.00061026347059363,-0.0005435499603182498,-0.0006846767676371519
0.52,-1.6442917243403785,-1.5465254528243275,-0.0011570411724016142,-0.0010476362921362828,-0.0003743047449932246,-0.0004803008526084858
0.5266666666666666,-1.6331186114012644,-1.6002100187365307,-0.0011753220401631262,-0.0010546180956510249,-0.00038135957587870844,-0.0004820137104461511
0.5333333333333333,-1.6216092399263125,-1.6475908055368567,-0.001193744297052297,-0.0010633742999484558,-0.00038826378609176955,-0.0004839217767595262
0.54,-1.6094433353254396,-1.6826636823085872,-0.0012124426113082254,-0.0010755949602175195,-0.00039487391466717724,-0.00048621098084965605
0.5466666666666666,-1.597294308083073,-1.707796395336604,-0.0012317708518011221,-0.0010895938025663678,-0.00040024084832118327,-0.0004881804782101698
0.5533333333333333,-1.5851501133740098,-1.7280235556481571,-0.0012513922830012952,-0.0011044702448668711,-0.00040501695266753927,-0.0004900092507243274
0.56,-1.5728027169216687,-1.7353898188451182,-0.0012706906587469306,-0.0011216507303664133,-0.000409645379859463,-0.0004925219025668933
0.5666666666666667,-1.5604718869231546,-1.7374329485483708,-0.0012899912899421568,-0.0011395651839821376,-0.0004145202983652557,-0.000494772760299434
0.5733333333333334,-1.5481681208469704,-1.7307798978298496,-0.0013092956057709918,-0.0011586786905935645,-0.00041979789941514373,-0.0004965959359502031
0.58,-1.5360380633018067,-1.7128166839403167,-0.0013294347720379555,-0.0011793360515356581,-0.0004252479590717748,-0.0004981582303317082
0.5866666666666667,-1.5239946783437943,-1.6895268593520179,-0.0013497529315673828,-0.001200815700609147,-0.00043082012374475495,-0.0004995832467798511
0.5933333333333334,-1.5123129328339324,-1.6472529654553993,-0.001368386321986075,-0.0012262583432867814,-0.0004372708332947083,-0.0005003626957247211
0.6,-1.5010123890916502,-1.5954544430485516,-0.0013865254425456293,-0.0012528365061648349,-0.00044435184353632505,-0.0005009833445581458
0.6066666666666667,-1.4904648350949672,-1.524841874619859,-0.0014036882293965215,-0.0012816576677369036,-0.00045267788986599726,-0.0005012903147423932
0.6133333333333333,-1.4807744888416439,-1.4273222577917206,-0.0014177151128067242,-0.0013157330425307735,-0.00046459622727261073,-0.0005004590823252107
0.62,-1.4722611250285385,-1.2928581269533288,-0.001427436268331823,-0.0013570226740169423,-0.0004814469320667856,-0.0004980650496584141
0.6266666666666667,-1.463747513872553,-1.157988986078368,-0.0014374929905877638,-0.00139529590099213,-0.0004967172019757102,-0.0004959232356418465
0.6333333333333333,-1.4552291227651428,-1.0152929439276064,-0.0014540346081218464,-0.0013752764977022608,-0.0004814452465005687,-0.0004986555983049093
0.64,-1.4467107316577321,-0.8725969017768425,-0.0014705762256559294,-0.0013552570944123912,-0.000466173291025427,-0.0005013879609679721
0.6466666666666666,-1.4350341260985642,-0.7911635451061961,-0.0014935365942188217,-0.0013562348643798695,-0.00045858255049619276,-0.0005036909071366696
0.6533333333333333,-1.4217265367758338,-0.7408908474980521,-0.0015195483894703318,-0.0013683577046873269,-0.0004547867137934465,-0.0005055414697157042
0.66,-1.407632460680189,-0.7030708500256543,-0.0015456105871691865,-0.0013874820447337575,-0.00045189351546373445,-0.0005059295973703463
0.6666666666666666,-1.3927866071365131,-0.6704897082362252,-0.0015738462382522986,-0.0014076583832953208,-0.00044973224875362593,-0.0005065640300275016
0.6733333333333333,-1.377344700473285,-0.6421675858047974,-0.0016034633283011762,-0.0014293115179771997,-0.0004479504501804046,-0.0005066893263849289
0.68,-1.361379337296632,-0.6177914723976883,-0.0016341126373583684,-0.0014529954081490693,-0.00044618630398493195,-0.0005058801393045552
0.6866666666666666,-1.3450558636161853,-0.5969203669947297,-0.0016664222943088265,-0.0014791602531324844,-0.0004434604379692956,-0.0005055592083825662
0.6933333333333334,-1.3278041930409654,-0.5784742007008452,-0.0017001974815453542,-0.0015059779794425795,-0.000442410899095929,-0.0005037234764733897
0.7,-1.3101881921125709,-0.5619701819584316,-0.0017355530549791301,-0.001534883614894912,-0.00044043317470823996,-0.000502761901602225
0.7066666666666667,-1.2922475789797587,-0.5471749282802264,-0.0017719155192730159,-0.0015657837399999746,-0.00043805739311774376,-0.0005008079854855627
0.7133333333333334,-1.2737733545321106,-0.5339306355988679,-0.0018096025907318755,-0.0015980333385112288,-0.0004353331661997474,-0.0004977593065280399
0.72,-1.2547902953799281,-0.5223049287091911,-0.001849495032575665,-0.0016308968603361243,-0.00043200141134364795,-0.0004943093627389001
0.7266666666666667,-1.235474166816459,-0.5120423015316719,-0.001891123880628399,-0.0016650136785966762,-0.00042778077138583786,-0.0004902938283766153
0.7333333333333333,-1.215580247009781,-0.5023665096285401,-0.0019333404084632853,-0.0017018677308581302,-0.000422848911026325,-0.0004861040746223689
0.74,-1.1952742557366995,-0.4935177964240702,-0.001976896639467415,-0.0017397656807384234,-0.0004184416811694922,-0.00048100823593128
0.7466666666666667,-1.1746330039006594,-0.4861052973080072,-0.0020227900702537134,-0.0017782530134604119,-0.0004127439340261768,-0.00047480256481416454
0.7533333333333333,-1.1534007464292857,-0.4794014809137184,-0.0020708304035498195,-0.0018185477620221492,-0.0004079919203331816,-0.000468052750702772
0.76,-1.1318655922876077,-0.473073855502875,-0.002119380197053416,-0.0018603219092569912,-0.00040061381884463855,-0.00046096340262944226
0.7666666666666667,-1.1098741189057628,-0.4675351317963649,-0.0021702093751918396,-0.0019034543206731698,-0.00039241239964058893,-0.0004527768069767441
0.7733333333333333,-1.0873677695213448,-0.46299112618184496,-0.0022222990272091647,-0.0019489267169051636,-0.00038412396864359724,-0.00044332493180347757
0.78,-1.064432333050303,-0.45856726843736584,-0.0022770844411823016,-0.0019954341781037097,-0.00037497755222361696,-0.00043303330075139713
0.7866666666666666,-1.040963166062807,-0.45485364308800547,-0.0023333090627532683,-0.002042033558850418,-0.00036553116115357767,-0.0004221503625286112
0.7933333333333333,-1.0172357035127326,-0.45192627304143845,-0.002390726474055008,-0.002092823867812942,-0.00035505351844328074,-0.00040934967913074853
0.8,-0.9929430364730746,-0.44951998486611544,-0.00245031058238063,-0.0021445133857604303,-0.00034319999987749713,-0.0003961214813583021
0.8066666666666666,-0.9682716447895188,-0.44735226712092896,-0.002511302383014877,-0.0021975162956088226,-0.00032892506172334864,-0.00038170526106480566
0.8133333333333334,-0.9431677145776698,-0.44562827123806215,-0.0025748683301810727,-0.0022508552831869344,-0.0003152440693890766,-0.00036576530342921247
0.82,-0.9174083764662573,-0.44487349096044315,-0.002641700477942231,-0.0023062164295920727,-0.00030010510082261236,-0.0003484834308194046
0.8266666666666667,-0.8912927784891893,-0.4441907216927669,-0.0027065616061400038,-0.0023634864733173555,-0.00028331721826425357,-0.00032988051914437566
0.8333333333333334,-0.8646445816660107,-0.44407838430366264,-0.0027752462288007543,-0.002422196459297778,-0.00026545828157034423,-0.00030958071141971275
0.84,-0.8376803614810011,-0.44486013837858734,-0.002842743825495686,-0.0024825405735484814,-0.00024632085559816167,-0.0002880474292845168
0.8466666666666667,-0.810000251126597,-0.44545251199557107,-0.0029154689554895153,-0.0025421609640990973,-0.00022614035400562652,-0.0002644516199601638
0.8533333333333334,-0.7820017364345438,-0.44732379929944593,-0.002987467136232252,-0.0026044735953235486,-0.0002052686526486409,-0.00023945928137846404
0.86,-0.7534901428298043,-0.4486463965330144,-0.003059798664096713,-0.0026672819300952626,-0.00018056459310988052,-0.00021300865499482592
0.8666666666666667,-0.7242544836756882,-0.451665071213865,-0.003134298097966562,-0.0027296560091937456,-0.00015587823572418643,-0.0001846353147013584
0.8733333333333333,-0.6946908942772702,-0.4552698066310413,-0.003208460929294239,-0.0027922794847107567,-0.0001302834465237517,-0.00015490752631951916
0.88,-0.6645138752042714,-0.459317677218748,-0.0032821521192688856,-0.0028556915385353323,-0.00010129380091013023,-0.0001227061235354382
