# n,energy,berry,bcd_x,bcd_y,qmd_x,qmd_y
0.00000007407407407407407,-3.0682692185939286,-0.0000000010520373625324766,0,0,0,0
0.006666666666666667,-3.0203288461351545,-0.0000936586272532213,0.0000000000000000000006675385392028449,0.00000000000000000010209902469216634,-0.00000000000000000017041431312181556,0.00000000000000000013920243581965228
0.013333333333333334,-2.9730784842477567,-0.00017108020986181713,0.0000000000000000006411226636119421,-0.00000000000000000002632427781123547,0.000000000000000000008379872070044391,-0.00000000000000000031821907668618687
0.02,-2.9318153955593615,-0.00019537117064335831,0.000000000000000001821341218135788,0.0000000000000000003115015948492353,0.0000000000000000007266529222283675,-0.00000000000000000020837590590406677
0.02666666666666667,-2.9071603998956568,-0.00014776031671031255,0.0000000000000000012337285918838335,-0.0000000000000000001953926711010619,-0.0000000000000000007803860263856293,-0.0000000000000000014059130860457399
0.03333333333333333,-2.8838173703562053,-0.00007705246431809858,0.0000000000000000019262779212064006,-0.00000000000000000011401929749775166,0.0000000000000000010758666735703613,-0.0000000000000000003383536020320116
0.04,-2.8606239786493255,0.000013512818585516888,0.0000000000000000016746639569851423,0.0000000000000000005829274325222744,0.00000000000000000006456326302591235,-0.00000000000000000055746092217351
0.04666666666666667,-2.837608557353596,0.00012522753157564052,0.000000000000000002413096727471017,0.00000000000000000033963346044009155,-0.0000000000000000005793050039924343,-0.0000000000000000006824267853070749
0.05333333333333334,-2.8147514682286627,0.00025962347326410873,0.000000000000000003610216808149958,0.000000000000000005576040697783779,0.0000000000000000000790166369438935,-0.0000000000000000005138785210559079
0.06,-2.7920697094390032,0.0004179187323854995,0.0000000000000000021991692482825264,0.000000000000000003908533143510095,0.0000000000000000041986368559938005,-0.0000000000000000010192100348091211
0.06666666666666667,-2.7695452927422983,0.0006019391763341514,0.0000000000000000008494119269454586,-0.0000000000000000025994752546578547,0.0000000000000000020759210071693825,-0.0000000000000000016747889628702646
0.07333333333333333,-2.747209302452177,0.0008147072699676562,-0.000002460503546074596,0.0000015005756159420398,0.0000011312629961663663,-0.0000021620694366544525
0.08,-2.7250053619714123,0.0010573513503445095,-0.00003670741113155643,0.00002273871525113539,0.000017697582498825003,-0.00003209297031014573
0.08666666666666667,-2.7030047191709383,0.0013321438885844014,-0.000021235269774451594,0.000015438529504184135,0.000015325148283535753,-0.00001763311544119273
0.09333333333333334,-2.6811492078406673,0.0016392782943530837,-0.000016502715606712463,0.000014384835797712652,0.000016268107359755008,-0.000013227094017071659
0.1,-2.659453910578408,0.001980959036672738,-0.000013662913281455994,0.000014611921249908362,0.000017724685576585745,-0.000010803087734065314
0.10666666666666667,-2.637913626404927,0.002359773170807323,-0.000011411672067332295,0.00001542054370177009,0.00001929423367814794,-0.00000917723313864868
0.11333333333333333,-2.6165554810376714,0.002778607131034605,-0.0000093127968678167,0.00001659513255803423,0.000020782024291300506,-0.00000797312242396023
0.12,-2.5953512093787356,0.0032378306018529396,0.00001306564463625559,0.000007271863173687009,0.00003063559490499068,-0.00002635277991278727
0.12666666666666668,-2.574290464694768,0.0037407074701285323,0.000019870323482747104,0.000007719614185190355,0.0000307600457570754,-0.00003114101556253189
0.13333333333333333,-2.553400595445347,0.004289398984840399,0.000018216899134661822,0.000013463593133069093,0.00002599472953858224,-0.000027779157715063004
0.14,-2.532667360486843,0.00488531734108993,0.000019917831619433726,0.000017887072843574495,0.000021739495617586085,-0.00002699610856776986
0.14666666666666667,-2.5120854870649527,0.005532552734012483,0.000023071461671626896,0.000022199419284984718,0.000016020106430142076,-0.00002714457313217559
0.15333333333333332,-2.491664004149372,0.006231074867244824,0.00002727804596167565,0.000026718527779249087,0.000007507116304749759,-0.00002786965017170072
0.16,-2.471410290894092,0.006976775653839675,0.0000324661144508693,0.000031598716405441,-0.000005354339573370998,-0.000029129702460642035
0.16666666666666666,-2.4513347609092677,0.007775134082228354,0.00003866367143229494,0.00003693328983477243,-0.00002463148951884148,-0.00003105181523033732
0.17333333333333334,-2.431416175206812,0.00862133855913859,0.00004595960459029699,0.000042817877307414385,-0.00005321350115659887,-0.000033924384125959443
0.18,-2.4116406487720474,0.009514492349304444,0.00005448042886965989,0.000049339942117163854,-0.00009517443919326198,-0.000038274641737098425
0.18666666666666668,-2.3920230061429923,0.010437762477725297,0.0000643653535827453,0.00005659037477827915,-0.00015618160844336793,-0.00004496740513542081
0.19333333333333333,-2.3725807684927402,0.011375248920155873,0.00007576308339612598,0.00006465054740725512,-0.0002441894411822449,-0.000055387575451728745
0.2,-2.3533090118088964,0.01230530463615439,0.00008884574373352612,0.00007363635966609359,-0.00037044427246396837,-0.00007170764853027788
0.20666666666666667,-2.3341858491092644,0.013170535129935969,0.00010378620990536845,0.00008367208486841227,-0.0005509855073277896,-0.00009730903876376059
0.21333333333333335,-2.315242456421788,0.013873850896730378,0.00012070186320402735,0.00009487654347665634,-0.0008078934489639449,-0.00013729191741696114
0.22,-2.2964933180598894,0.014250149139617425,0.00013965640471795212,0.00010737397107779518,-0.001171979464267401,-0.00019931318913734116
0.22666666666666666,-2.2779344644235313,0.013958431202201083,0.0001606381933624218,0.00012131186253325451,-0.0016864496018281624,-0.0002948187980599486
0.23333333333333334,-2.2595933087272657,0.012265418550241656,0.00018344531360865474,0.00013681106410077184,-0.002409819483388487,-0.0004403669616330661
0.24,-2.2415050198129496,0.007291406050794038,0.0002076333301232677,0.00015396201390462853,-0.0034199265464941145,-0.000659341390683688
0.24666666666666667,-2.2237968910684835,-0.007967899217073564,0.0002323199475537207,0.0001727124840583053,-0.004807933933580178,-0.000981350288341486
0.25333333333333335,-2.2066035914183115,-0.04570448817156684,0.00025629178570356126,0.00019289372321601745,-0.006669251070754982,-0.0014397513622237343
0.26,-2.1895016710289377,-0.12003816766676015,0.00027857729470725845,0.00021512579517969817,-0.009253341231993114,-0.0021138492726073166
0.26666666666666666,-2.1700551013933973,-0.15893187305867695,0.00029806657702873565,0.00024312299007162223,-0.013551301381939418,-0.0033088559835993204
0.2733333333333333,-2.149782154298983,-0.17043541802665296,0.0003058607266027774,0.00027488661474299865,-0.020126605263487446,-0.005250163889172648
0.28,-2.1323254440348944,-0.10623721602640114,0.00029286725672951665,0.0003037477797969566,-0.028492057740086448,-0.007865691114030425
0.2866666666666667,-2.1152115113149104,-0.05508532647224166,0.00025348611769794967,0.0003318412774028382,-0.03991730500784447,-0.01161197516739554
0.29333333333333333,-2.0983816935617403,-0.011004176735183276,0.00017867061519356023,0.00035705996668157714,-0.05523860787829529,-0.016857112155913942
0.3,-2.0820848607606712,0.04132782670946318,0.00006199851529757292,0.000376122717693306,-0.0749023512635138,-0.023851793170895686
0.30666666666666664,-2.0662293415654225,0.10962418034834512,-0.00010132463668436882,0.00038606340387012286,-0.09938282518176945,-0.03285004476934819
0.31333333333333335,-2.049927097749279,0.19201185835224716,-0.0003373849357914811,0.00037992177816637224,-0.13184572785792217,-0.04520401549589071
0.32,-2.0318570449982145,0.2500342054039577,0.0008565085781928037,-0.0006389535147587845,-0.193545937645663,-0.06691640644978966
0.32666666666666666,-2.012876723836064,0.2987201559930231,0.00027562289468713525,-0.0007072252265896181,-0.27253541580517215,-0.09774480991688056
0.3333333333333333,-1.9958562967392348,0.2820808203139607,-0.0004706852480990791,-0.0006743878743853759,-0.36164485469333885,-0.13398154423605946
0.34,-1.9796746768572075,0.2564764306160703,-0.0011378204831240444,-0.0006591510892100611,-0.46127018740321235,-0.17568571372378605
0.3466666666666667,-1.9637794438129335,0.24032589101800153,-0.0017526650832889708,-0.0006214539909490894,-0.5701168311164704,-0.22255348153932816
0.35333333333333333,-1.94806702761534,0.23198801971766259,-0.0022851569720458965,-0.0005496241375611077,-0.6848394334325287,-0.2733887018154501
0.36,-1.9325850939532685,0.22955393461957688,-0.0026143412670631633,-0.00045206225407904023,-0.7980376596224174,-0.32570340983977514
0.36666666666666664,-1.9172776754490313,0.23031915212057263,-0.002716723979659687,-0.00037930721418363996,-0.9036492975419093,-0.37637112166688136
0.37333333333333335,-1.902133856817059,0.23342380583813352,-0.003577854223691043,0.00019167755723165948,-1.0004963054746017,-0.42190876278034395
0.38,-1.8871588277665883,0.23840894733931414,-0.005037007785371826,0.0011567625432783084,-1.091469821127353,-0.46284275208894093
0.38666666666666666,-1.8724489779767386,0.24523355986434733,-0.0035367292964444343,0.000529396519740448,-1.1961588043636961,-0.5109779556838925
0.3933333333333333,-1.8579450240435476,0.2530190503034526,-0.0021637570944046678,0.0002031809984541506,-1.4215507215094343,-0.5759267464478521
0.4,-1.8436268931259518,0.25956789415958875,0.0002942107152995872,-0.0005949366844366908,0.278788917080804,-1.968583195301935
0.4066666666666667,-1.8295090112996444,0.26358265987540436,0.004606617310869361,-0.002326286487172551,5.216281020414038,-5.541558803658787
0.41333333333333333,-1.8160772312427615,0.2659959209542984,0.0012494039058087254,-0.0036423594444619264,1.925722455309133,-1.956541625020927
0.42,-1.8027043367366151,0.2828520835337189,-0.0006665790676244699,-0.004827848140648391,0.029849165313090814,0.10680615406856406
0.4266666666666667,-1.7893669613105119,0.31603404436104965,-0.0006168561212300874,-0.005884989939415373,0.07232844138616884,0.13685291453858642
0.43333333333333335,-1.7762689647386771,0.35724061488380604,-0.000375122155120597,-0.006124147741946259,0.06354236333049428,0.12822035463985376
0.44,-1.7633206732518973,0.40164870326925545,-0.00013452898475012468,-0.0060897795937730126,0.035724823697487654,0.10595403111034023
0.44666666666666666,-1.750550501257072,0.44976077369767387,0.00009768886041977532,-0.005743750142368418,-0.013982081043801761,0.06807733876097255
0.4533333333333333,-1.7381442692467224,0.5046495212439831,-0.00010978847738680003,-0.006200856452678367,-0.14729946435211508,-0.02871144767120913
0.46,-1.7259901582867587,0.5633651880102406,-0.00016836010450792805,-0.006361962809139685,-0.28266062437320977,-0.12336097626917389
0.4666666666666667,-1.7144060734331288,0.6302503556495889,0.00036211757530930477,-0.0053794727795908525,-0.3915455629145719,-0.1892708246153588
0.47333333333333333,-1.703343447503523,0.7063048161737872,0.0007586593380341585,-0.0043794435128714495,-0.46833316576242173,-0.2405262358504081
0.48,-1.6927314680221572,0.7902834085539385,0.0010394532584099467,-0.0033642567820228253,-0.5173821497817224,-0.27911723627409835
0.4866666666666667,-1.6832021703324558,0.8940508497171359,0.0010436916067659415,-0.002601623849245111,-0.5506992078400997,-0.30865114167770463
0.49333333333333335,-1.6742486542961286,1.0083422104275128,0.000900854770396972,-0.001973301703384446,-0.5756498609120074,-0.333368387943251
0.5,-1.6661649965995644,1.1410472743063536,0.0005941465672466939,-0.0015662875218356138,-0.5697876592232676,-0.3382854038027656
0.5066666666666667,-1.6592809841340075,1.2991471756908644,0.00006143891720784605,-0.001464485156779748,-0.5214306137449023,-0.31589538483415686
0.5133333333333333,-1.6523969716684508,1.4572470770753723,-0.0004712687328309929,-0.0013626827917238842,-0.4730735682665379,-0.2935053658655485
0.52,-1.6436364477030785,1.554076285088589,-0.0047717868211183765,-0.0001454614076265529,2.0208216764401854,-2.554839283393151
0.5266666666666666,-1.6331205556008823,1.593590297924113,-0.012596873977885241,0.0021151700517225394,6.8023766731571635,-6.952465055152784
0.5333333333333333,-1.6219492790390906,1.6306973680867825,-0.013496806174478265,0.002333886766748314,5.76975797809204,-5.461274337372293
0.54,-1.6103692207868694,1.6663031605182341,-0.010077324766338294,0.0012790039194455025,1.1106758913783157,-0.2970634190363288
0.5466666666666666,-1.5984451823090329,1.690917209932459,-0.011195445421091844,0.002676190929216597,0.4946724254534305,0.2099517307135022
0.5533333333333333,-1.586444176851493,1.7117692321170286,-0.0129430353854964,0.004455875796487166,0.39832199849102595,0.14804019754265438
0.56,-1.5743209814663033,1.7240813950368552,-0.014929455775402625,0.006515290806943014,0.3681082742601941,0.11548740813994988
0.5666666666666667,-1.5622185598014264,1.7291774293886586,-0.016933944813402702,0.008754687448667975,0.3578600216958131,0.09540062212145485
0.5733333333333334,-1.5501317733435824,1.7288422909682564,-0.01895203310322226,0.011129546108015248,0.3626386530175618,0.0846962934026479
0.58,-1.5381965513096523,1.7164972078497707,-0.02068221732029106,0.013660758010363185,0.38865261804056633,0.08928955560119697
0.5866666666666667,-1.526378791146973,1.698573299584883,-0.022219476105235853,0.016161847218558553,0.4203031478200806,0.09837259717281915
0.5933333333333334,-1.5148892575683977,1.666442276154061,-0.02322883064507495,0.0185226925642437,0.463693828633709,0.11727172476623811
0.6,-1.5037966756353336,1.6212119139850283,-0.023788897630779897,0.020584890784703817,0.5094396754525974,0.13934187745533522
0.6066666666666667,-1.4931004635786649,1.5629014113625248,-0.023900335534550513,0.02234887957474646,0.5575372365645284,0.16457840781141841
0.6133333333333333,-1.4835181636367079,1.4704547714697906,-0.02354839174816576,0.023552959275050418,0.6005694419813817,0.18835610199377684
0.62,-1.4745855869738196,1.3580971864055005,-0.02292616643129771,0.024430454889446028,0.6406471239054139,0.21128288539969475
0.6266666666666667,-1.4660678758650936,1.231051921283888,-0.022158874479663904,0.0250598670620124,0.676890290023904,0.23228447628780338
0.6333333333333333,-1.4581886139131797,1.0814033408134,-0.02116833509348539,0.0253074961179384,0.7072324037212718,0.25032333014613484
0.64,-1.4503093519612658,0.9317547603429097,-0.02017779570730686,0.025555125173864407,0.7375745174186401,0.26836218400446665
0.6466666666666666,-1.438041957965353,0.9020591386433037,-0.019571724693591988,0.02615838085277587,0.7736180381417797,0.2886858976920604
0.6533333333333333,-1.4246565175837536,0.9036016373286326,-0.014997209295373223,0.02441356375137171,0.8047572455986021,0.3093055042822396
0.66,-1.4104488805440916,0.9290591334319053,-0.0018279824430772924,0.017537801068347854,0.823416072654095,0.3297431058814933
0.6666666666666666,-1.3954100858204754,0.9948804533581223,0.0032325530616497955,0.014691035595466511,0.8212583138600892,0.3297354528786208
0.6733333333333333,-1.3798613444385943,1.104979448490502,0.00809637236015679,0.012229717952642386,0.8021999816731985,0.3205950454468207
0.68,-1.3637862689852929,1.28784839879858,0.013495240097081206,0.009908663394215486,0.7630804586579427,0.3021123605155823
0.6866666666666666,-1.3469756269981412,1.509315266016246,0.019163249126444255,0.007940563669641295,0.699970612988438,0.2729837286015478
0.6933333333333334,-1.3281676671822609,1.3326031099591304,0.024754128469133975,0.006484536328114295,0.6055444220269153,0.2308411253292066
0.7,-1.309059606949121,0.9230368926687055,0.028968204956243766,0.005617077149958915,0.4965484305288598,0.1838243437715103
0.7066666666666667,-1.2908565976138144,0.3486031803785653,0.03160993616422909,0.004859754800841383,0.39395126817427006,0.14066118966041516
0.7133333333333334,-1.2733417406301226,-0.24289647567182604,0.03756524306373616,0.0015442021236323376,0.307571914422917,0.1012926829512211
0.72,-1.2549310358425512,-0.607013554556223,0.026886772882796138,0.006589693813545648,0.22539062626470774,0.07668314010893439
0.7266666666666667,-1.235777053813849,-0.9075103097276991,0.020873959229718367,0.007698065799481128,0.16276654661664747,0.05584996226542588
0.7333333333333333,-1.2160737441335079,-1.29047111967419,0.018719568210188296,0.006211383876610335,0.11550371738416003,0.03812925244849501
0.74,-1.1942718481284875,-1.4135599839364246,0.016056814431771593,0.004949689484248066,0.07642095599219265,0.024232659448846085
0.7466666666666667,-1.171280437448101,-1.1487746109904724,0.013309662460796318,0.003961886077735511,0.047890914409488006,0.014704858767473503
0.7533333333333333,-1.1497448840580735,-0.6851978348192556,0.011008314392602964,0.0032820655991799507,0.030346109695880807,0.009256545397164773
0.76,-1.1298699047332181,-0.16365225977171327,0.009196037419702438,0.002810713683036741,0.019756598791903293,0.006214859999944499
0.7666666666666667,-1.1084937026884085,-0.019132111109298976,0.007574489582431088,0.0024212683040339454,0.012258663497239303,0.004233470792895718
0.7733333333333333,-1.0864025491224514,0.036126959936454456,0.006228237821283528,0.0021151254500066225,0.0073661270280932205,0.0030717699968566964
0.78,-1.0637440743349924,0.06260052530262003,0.005133369232265593,0.0018730327513842748,0.004204541029066985,0.002414689625999497
0.7866666666666666,-1.040617978239959,0.07590532028348494,0.004259180877670733,0.0016811036603656493,0.002194117135201422,0.0020683830815430696
0.7933333333333333,-1.0169872479187565,0.08278602137256538,0.0035683594195719363,0.0015272769065288762,0.0009264857687316694,0.0019083214050737267
0.8,-0.9928753095338009,0.08621772976496853,0.003029155061721873,0.001402402570608848,0.00013427844017434293,0.0018596212470292756
0.8066666666666666,-0.9683494960400475,0.08749027028203775,0.0026185158351202742,0.0012997459599827202,-0.00035127767482141234,0.0018795671950580378
0.8133333333333334,-0.9432938355576279,0.0878056715524817,0.002317016010183115,0.0012129182957213232,-0.0006440198313350837,0.00194494779210834
0.82,-0.9177536543693825,0.08720112287134013,0.002092766632266536,0.0011341361667196422,-0.0008398819613622375,0.0020387728430616993
0.8266666666666667,-0.8918018844968806,0.08647744158106983,0.001932128775964193,0.0010584530998193557,-0.0009800894274652697,0.002156680903323529
0.8333333333333334,-0.8653242576600771,0.08557425754677561,0.0018294469273972414,0.0009799157604076895,-0.0010907780249240955,0.002302208538402006
0.84,-0.83835840786052,0.0848895772142518,0.001773347144827527,0.0008923471516574996,-0.0011930349081531,0.002477767677501058
0.8466666666666667,-0.8109392160859507,0.08411930429855978,0.001755724524841101,0.0007899788391302516,-0.0012989129123218252,0.002686816941309219
0.8533333333333334,-0.7829924128196194,0.08360696886934847,0.001782590009630198,0.000660572214031795,-0.0014193578659939003,0.0029467431132338693
0.86,-0.7545620342766313,0.08330700991805054,0.0018529353303902135,0.000496891169182104,-0.001560267165611492,0.0032667415997316715
0.8666666666666667,-0.7256176715183842,0.0834574734245046,0.0019849538871368365,0.000279381522193231,-0.0017314620413359301,0.003676937690667374
0.8733333333333333,-0.6960934610548479,0.08392775112954191,0.0022180933503154103,-0.000023040354653968787,-0.0019472134154941017,0.004229738047313649
0.88,-0.6660804071880195,0.08479110499904854,0.002642415947822276,-0.00046583909363463483,-0.002227940448370506,0.005023680881803026
0.8866666666666667,-0.6355135839953552,0.08612982532559557,0.0035657591502594775,-0.0012308871914795412,-0.002636114866417625,0.006367855484796638
0.8933333333333333,-0.6044030629775609,0.08796276722644031,0.007060736674485214,-0.0035013846151674324,-0.0035032553503734102,0.010123328331552772
0.9,-0.5726735377865946,0.09034693057401258,-0.0014292655934860458,0.0011765538341692635,-0.002633338996505184,0.003959683688953846
0.9066666666666666,-0.5403677237825183,0.09354219078189172,-0.004789206102532947,0.0029684481803958045,-0.0029819154062772813,0.00266540720131241
