# n,energy,berry,bcd_x,bcd_y,qmd_x,qmd_y
0.00000016666666666666665,-3.0493911035070367,0.00000000381800592148558,0,0,0,0
0.006688963210702341,-3.0245877111105752,0.00022691943196482577,0.0005686996613109779,0.00000000008969389597870124,0.0000000014587081741524191,0.00005857438960964503
0.013377926421404682,-3.0011898148374354,0.0004688123244335231,0.0015225619232116852,0.00000000013655569387277556,0.00000000033036713599469216,0.00011702407973137326
0.020066889632107024,-2.9780154776683694,0.0007227199701780776,0.002711514083181891,-0.0000000005336211897088872,-0.0000000006598940929409895,0.00017236287271433742
0.026755852842809364,-2.955041619167851,0.0009897444317324025,0.004054822712685435,-0.00000000025348669789206535,0.0000000012773249667895138,0.00021390292971726013
0.033444816053511704,-2.9322702348713285,0.0012699912810231005,0.005490103363576614,0.00000000033855810571495837,0.0000000034206709550276714,0.00023028803730353996
0.04013377926421405,-2.9097207581615088,0.0015633629962376588,0.00696196219145163,0.0000000002155674287596364,-0.000000003994191062997044,0.00020799646375568238
0.046822742474916385,-2.8873996671440443,0.0018727321331979622,0.008414941721584735,-0.000000000821770896155531,0.000000001121096283616545,0.0001292364953841455
0.05351170568561873,-2.865301565053712,0.0021964933613649327,0.009800277417256757,-0.0000000008390564859383683,0.0000000014617753754346814,-0.000017934320131087676
0.06020066889632107,-2.843413940058202,0.002534918423632243,0.011074519707007667,-0.0000000005163486887121897,0.0000000009806014433347072,-0.00025088462176011626
0.06688963210702341,-2.821737577701623,0.0028890997628316134,0.012194046003373918,-0.00000000028205274304244596,0.0000000008849719706528581,-0.0005895353519961125
0.07357859531772576,-2.800269906722955,0.0032589443382326348,0.013115344224170593,-0.0000000006190044387042734,-0.0000000029333984515087925,-0.0010571587054698883
0.0802675585284281,-2.7790311142682365,0.0036473927917331328,0.01379335677986355,0.0000000004025270307125293,0.00000000017808984675667332,-0.0016804447717241227
0.08695652173913043,-2.7580077089903265,0.004051761090894827,0.014182883911591953,0.0000000009448804392249134,0.0000000001370273009122866,-0.0024918832502370957
0.09364548494983277,-2.7372083718357914,0.004475473756739095,0.013482999549314532,-0.000202310982418488,0.0010511356284552188,-0.005176944638712933
0.10033444816053512,-2.7166509660020393,0.004917515802515525,0.013535294140626306,-0.0000903559565295505,0.0014555462431976637,-0.0059353966770092975
0.10702341137123746,-2.6963006850973246,0.005381142035704719,0.013049110094974573,-0.000004784193393172282,0.0014125300012916286,-0.007178636380981219
0.11371237458193979,-2.676194330607303,0.005867328023389956,0.011825129376036681,0.000016884883985199947,0.0014458247669667673,-0.009265794255598751
0.12040133779264214,-2.6563265663178086,0.006375633119569763,0.010016236342738452,0.00003646918106349087,0.0015044626706188498,-0.01184485106359294
0.12709030100334448,-2.6366933048861503,0.006909977086974703,0.007557031055986025,0.000057024884742923694,0.0015356108635760034,-0.014987234171518211
0.13377926421404682,-2.6173104933152893,0.007474480167626669,0.004370555751023084,0.00007887905202667535,0.0015085251315642726,-0.01879065152522418
0.14046822742474915,-2.598200234124309,0.008070206558154274,0.0003747552183704342,0.00010191767601273443,0.0013974386854082442,-0.023373263596702852
0.14715719063545152,-2.5793319761812796,0.008702540573150473,-0.004529005507403882,0.00012617937281523696,0.001177571474805712,-0.028894571672924488
0.15384615384615385,-2.5607455679280635,0.009373223197946607,-0.010426166131540838,0.00015164050270390726,0.000827306097749269,-0.03553082316885067
0.1605351170568562,-2.5424364926737835,0.01008985259315923,-0.017408619024185057,0.00017860331201056614,0.00032967996394715564,-0.043512469938785436
0.16722408026755853,-2.5244132329709936,0.010860662502537711,-0.0255531861318802,0.00020772230809150644,-0.00032476569215897816,-0.05311672492012162
0.17391304347826086,-2.50670296778057,0.011691960558821234,-0.03490167691552709,0.0002398835441950567,-0.0011354655412930655,-0.06466042015114569
0.1806020066889632,-2.48931669183419,0.012592169778405975,-0.045461093213472095,0.00027606220053790224,-0.0020929271174675032,-0.07851088106541723
0.18729096989966554,-2.4722685600275494,0.013573694114958498,-0.05718278883073563,0.00031707171687618167,-0.0031795777586112674,-0.09505732784023677
0.1939799331103679,-2.455656679048035,0.014684887574951285,-0.07006246690699032,0.00036418817733821436,-0.004381719216320263,-0.11531028981001532
0.20066889632107024,-2.439493925314194,0.015922862414675415,-0.08364970642032067,0.00041651372649167577,-0.005652722078416303,-0.13976909319665706
0.20735785953177258,-2.4238272851893305,0.0173244561631383,-0.09727965090737323,0.0004718798536526897,-0.00695016412380537,-0.16843673987291527
0.2140468227424749,-2.4087077784083233,0.018916776533675773,-0.11028515034618569,0.0005283078130114008,-0.00824652359519332,-0.2013016261167999
0.22073578595317725,-2.394160334193971,0.02071378267131072,-0.12216668786119965,0.0005842690834156784,-0.009523129633052416,-0.23823499429798758
0.22742474916387959,-2.3812874451712585,0.023199803777044326,-0.12933639890839763,0.0006325600623308487,-0.010667450674425545,-0.2809256486018638
0.23411371237458195,-2.368673982450912,0.025713892534562778,-0.1395469477432881,0.0006776830700003163,-0.01178986486691736,-0.31749091046306516
0.2408026755852843,-2.3563530548104885,0.028243500740329414,-0.15395950943628015,0.0007188279264139886,-0.012887286712450744,-0.34571034003638573
0.24749163879598662,-2.34399045459803,0.029863680394470578,-0.1856132089615275,0.0007534749721084069,-0.013988654790196535,-0.34588069461153625
0.25418060200668896,-2.331097253538882,0.031414619507565564,-0.23552313856904722,0.00078535903576909,-0.015139604924308981,-0.34253725677549124
0.2608695652173913,-2.31625074451479,0.033472830712804505,-0.33931257655596997,0.0008123671441246122,-0.01647303818803507,-0.3496743794390491
0.26755852842809363,-2.299884649416295,0.0362861673003007,-0.5595631964734458,0.000828192232960577,-0.01797798729987363,-0.37719996842407283
0.27424749163879597,-2.2824020743343314,0.04027273873388992,-1.0004813338836807,0.0008304726391197161,-0.01963305951349393,-0.4363015200013272
0.2809364548494983,-2.2638648639922345,0.046250151544108095,-2.077410131578143,0.0008150845646366022,-0.021403932960209694,-0.5561346399384617
0.28762541806020064,-2.2444015094196246,0.04813098070615457,-8.516639472910253,0.0007782808584779506,-0.023010387582758512,-0.666908708597993
0.29431438127090304,-2.2243369291165807,-0.5279639570417248,27.38715507193929,-0.20003546784185086,-3.268331528946046,20.921941406868505
0.3010033444816054,-2.2028264764283882,-0.6611765990677048,33.75619154002468,-0.14246731832046364,-2.5409966031479363,46.52212225032438
0.3076923076923077,-2.1790152017177853,-0.2834922573799418,9.012713095886511,0.002637890354952849,-0.03167032823274296,45.54190003086644
0.31438127090301005,-2.1531101466422786,-0.18229448897138742,5.181251971652675,-0.0008243106021037945,0.12310398145194398,37.67678566409203
0.3210702341137124,-2.12698441143211,-0.2525857733108156,5.08621396219805,0.0004611884050942491,0.432983334866554,30.463803102418744
0.3277591973244147,-2.100902484387423,-0.377460117596097,4.940392652211354,0.017230165480327023,0.8383659582718981,23.690594738924915
0.33444816053511706,-2.073992882215057,-0.5017721501375614,4.2745414751900155,0.049299755560487955,1.0484841765965995,17.911270762329764
0.3411371237458194,-2.046152851152896,-0.6384209861580735,3.563239561527721,0.05390406400404059,0.910424897299406,13.135829675428784
0.34782608695652173,-2.0215165711763854,-0.7818954712327505,2.912630439827587,0.04474899260644423,0.7248262893100939,9.722978328769052
0.35451505016722407,-1.9995864328460136,-0.8039172563207189,2.3563998288576165,0.03612963211030189,0.5804946465829907,7.653692880092135
0.3612040133779264,-1.9799687857636012,-0.7776925574877003,1.908821024030141,0.028714611657991468,0.4699520658751207,6.2598851479497455
0.36789297658862874,-1.9654029094191936,-0.7566208678464762,1.6119066232317292,0.02425137487168314,0.4011891061567918,5.380064531083943
0.3745819397993311,-1.9526348373173548,-0.7474907227003837,1.3685477413764526,0.020825878168548997,0.3450169077716525,4.67673068316828
0.38127090301003347,-1.9412860375847913,-0.7564922711930321,1.1692412421874143,0.01816892152914356,0.29776457506814313,4.119779818358647
0.3879598662207358,-1.9325416054908808,-0.8091252387022657,1.029292565616881,0.01637472160825788,0.2661125964568997,3.7227439853908604
0.39464882943143814,-1.92543185671603,-0.8891443370306447,0.926601010909655,0.015122048158227906,0.24425249139974295,3.4260820132939234
0.4013377926421405,-1.918322107941179,-0.9691634353590236,0.8239094562024291,0.01386937470819793,0.22239238634258612,3.129420041196987
0.4080267558528428,-1.9097035765594947,-1.0227523212028942,0.720455718763957,0.012596897715375987,0.2000229687438181,2.8147749783866707
0.41471571906354515,-1.9007543428900393,-1.070548104915736,0.6168349224186676,0.011320080086018591,0.17754191755255072,2.4961882945547598
0.4214046822742475,-1.8909404862506118,-1.1024260471466243,0.5183383083024041,0.010088194862959574,0.1560832646450391,2.18220104792432
0.4280936454849498,-1.8805511607582182,-1.1237095195363744,0.42325220648125694,0.00888621539213195,0.13530509142412084,1.8712750579832649
0.43478260869565216,-1.8697691448198468,-1.1346634523157024,0.34231856883786715,0.007810521490205195,0.11684335664174529,1.5849120606355
0.4414715719063545,-1.8588092676085666,-1.1409388270030472,0.2677950064057228,0.0067920261075314885,0.09943080625770337,1.3096743788482377
0.44816053511705684,-1.8476815959082569,-1.1378983609729356,0.21372107873456192,0.005971168247234664,0.08537883549777561,1.068041742194921
0.45484949832775917,-1.8365345801876776,-1.1326169837411493,0.16468315741351114,0.005201854505469971,0.07214305540290852,0.8343143135877277
0.46153846153846156,-1.8254306105543554,-1.118509048890824,0.13614423313908475,0.004658271404865275,0.06216640461930151,0.6307118634832859
0.4682274247491639,-1.8144070394021752,-1.1012564966242953,0.11357723960260278,0.004201097373505385,0.05327651886695029,0.43485986890913614
0.47491638795986624,-1.8035665261574232,-1.076844019497284,0.10460763159714262,0.003940666653388713,0.046861069567407605,0.2566547521222322
0.4816053511705686,-1.79295869214602,-1.0460327083215253,0.10304324480432135,0.012991530481028038,0.15545155317618373,0.11447844149356881
0.4882943143812709,-1.7826104946067345,-1.0080812210579837,0.10974201705335412,0.03243245633710981,0.3923720740776042,0.012505083190698152
0.49498327759197325,-1.7727957972324704,-0.9586799042116813,0.11770668741509815,0.03653192653184362,0.44240855203532403,-0.13647504676600358
0.5016722408026756,-1.763412525361414,-0.9000194552914693,0.12669505142511747,0.028225223940536753,0.3413175373422141,-0.32346813612659464
0.5083612040133779,-1.7544717670155259,-0.826516919956305,0.12386186396827338,0.023726890923957758,0.2706899645541363,-0.4405964628194607
0.5150501672240803,-1.7461040207952743,-0.7337953212438622,0.10572091313454177,0.024160027390473626,0.2395095964443056,-0.4672566933154995
0.5217391304347826,-1.7377000276110661,-0.6398969497966691,0.08828852851180131,0.024119120206832333,0.2056885842866573,-0.4865183741065795
0.5284280936454849,-1.7287444610120368,-0.5280915184216483,0.08163846168787142,0.016864646799996573,0.13168464655980938,-0.39319563733479723
0.5351170568561873,-1.7197888944130075,-0.4162860870466274,0.07498839486394154,0.009610173393160816,0.05768070883296145,-0.29987290056301497
0.5418060200668896,-1.7124868016303014,-0.240405110898462,0.0774604560315094,0.009130563299449375,0.04810858918631144,-0.20989850969841573
0.5484949832775919,-1.705491704088567,-0.0526274315102242,0.08162619378063467,0.0099088205967004,0.050499320915054144,-0.1205457956021358
0.5551839464882943,-1.6984887721379478,0.1350660812731361,0.08586613133457126,0.010688896758510919,0.052900094908516174,-0.031051309924972872
0.5618729096989966,-1.6892263911856513,0.2984858863449181,0.11150534449035336,0.011993534731366183,0.05819706507044292,0.09933019883182359
0.568561872909699,-1.6799640102333546,0.4619056914167001,0.13714455764613548,0.013298172704221446,0.06349403523236966,0.22971170758862008
0.5752508361204013,-1.668691516258449,0.613501102625386,0.16022646512874456,0.015024283325444384,0.07164095210975019,0.3889012908639912
0.5819397993311036,-1.6568701451957477,0.7647532680354916,0.18161141610629344,0.016838070337845477,0.08065131193219689,0.555737580449549
0.5886287625418061,-1.6437794756676005,0.9253355260657602,0.19556824712829954,0.01875844331428886,0.09195749209998413,0.7394868129969248
0.5953177257525084,-1.6298796753176663,1.0982084190971695,0.1994331762063786,0.02036507781042632,0.10432997182989462,0.9289719001807941
0.6020066889632107,-1.6151940197730104,1.2849169020908602,0.1910553762475593,0.021470356922770942,0.1174602323133577,1.120107616933797
0.6086956521739131,-1.599568596399923,1.4916795618452854,0.16352534975229405,0.021612653682391247,0.13098317242567456,1.3059718633878983
0.6153846153846154,-1.582778024608102,1.7299911183338386,0.10067193217020845,0.019274151519826612,0.1419094810324048,1.460578916207246
0.6220735785953178,-1.564976346513331,2.0003435611018223,0.0011330596742954446,0.013936727674775202,0.14690121711990084,1.5625333064696203
0.6287625418060201,-1.5460252895721887,2.3095073983193375,-0.13956814614537968,0.005010157424013398,0.1426580990241624,1.5771960615727487
0.6354515050167224,-1.5257834661883694,2.663769090618421,-0.31536654357711424,-0.014877106568520622,0.14619504687239257,1.4667635628168536
0.6421404682274248,-1.504099465420827,3.0716210058315903,-0.4969125171487404,-0.008238421888680545,0.08194651599489461,1.1170390740354128
0.6488294314381271,-1.4809632846629874,3.5232220419692384,-0.6409519117440282,-0.008516211404131084,0.03993015998738046,0.5757143469506155
0.6555183946488294,-1.4616315083395706,3.697609105869431,-1.208898198691175,-0.020063687798632008,-0.067893132529137,0.6909367794460088
0.6622073578595318,-1.4390464922229091,3.89170368872713,-1.6124770504048118,-0.03356598360509123,0.03460910394471104,0.7328807974009477
0.6688963210702341,-1.4136361681266598,4.082248470201085,-1.3578623740866955,-0.06652869243383196,0.04275701098409922,0.6611657395334406
0.6755852842809364,-1.3865362269759542,4.249731480974012,-0.9237819378190801,-0.0705343959767836,0.04765065814942785,1.312780104154304
0.6822742474916388,-1.3539169794985668,4.229828161727286,-1.417885489302765,-0.062149477065105,0.04019649628102027,2.599312561684427
0.6889632107023411,-1.314942212834336,3.6321731279226697,-1.155209988209195,-0.04614053506560886,0.02817220863523718,2.0673851826633554
0.6956521739130435,-1.2797432454422173,3.0801855249998176,-1.0043320371066946,-0.03279450323095147,0.01915943498730545,1.3973097104616732
0.7023411371237458,-1.2485400109130615,2.6264949994476736,-1.0543328917562225,-0.023435533972074582,0.01334746818494165,0.9083075141723138
0.7090301003344481,-1.220336291496588,2.2427520486635495,-1.2063821276586961,-0.016520587359391794,0.009185662037470857,0.5997691262400784
0.7157190635451505,-1.1953575754877075,1.9232624814153625,-1.4043357327020922,-0.011660734809300952,0.00627035183555871,0.4489657804290753
0.7224080267558528,-1.1733797014497056,1.6408015962299078,-1.6103400296750345,-0.00799981736086305,0.003912235623631598,0.38444191754037066
0.7290969899665551,-1.1546853057768274,1.3811441620189726,-1.7990140318819303,-0.005280295288519527,0.0019300233889556536,0.34805505085401967
0.7357859531772575,-1.1372027483906537,1.1602027458235573,-1.8832838662520788,-0.0029962421425902583,-0.000006862873990690858,0.3028042715607043
0.7424749163879598,-1.1174763111958834,1.0307838525748108,-1.712980397727064,-0.0006838597445562267,-0.0023822550057343937,0.25124388358674876
0.7491638795986622,-1.0970508082492885,0.9474372826827513,-1.4426548663413836,0.0014566562539871548,-0.0050639325711404806,0.19666241543975754
0.7558528428093646,-1.0765592454293307,0.89228528327901,-1.1440471690584806,0.003342629043870514,-0.007875628984851966,0.13450055913357414
0.7625418060200669,-1.0566521062723715,0.8564435162011065,-0.8278268798662094,0.004895867558724421,-0.010509912694921375,0.058206134960128664
0.7692307692307693,-1.0375623674337962,0.8349049883950799,-0.49774824403924656,0.006094487404731768,-0.012706504142908722,-0.015234258938414472
0.7759197324414716,-1.0183214667844847,0.8270818883583225,-0.20329496733797747,0.006985422909978054,-0.014350315914204744,-0.03182630476356724
0.782608695652174,-0.998685371640719,0.8279448122074009,0.015398304751922179,0.0075598906950622635,-0.01528101754520565,-0.012553854949685687
0.7892976588628763,-0.9774323999652961,0.8239624498457274,0.15437013651122491,0.00782629600850478,-0.015364139891900483,-0.0015390389574875844
0.7959866220735786,-0.9552895655964833,0.8205911650869385,0.23061341888730122,0.007784687313842124,-0.014559515449887313,0.007659746637388799
0.802675585284281,-0.932431513868471,0.8183909442371444,0.2636889569909682,0.007493417372966238,-0.013035924526446339,0.015428065367082053
0.8093645484949833,-0.908998731134826,0.8174857603943291,0.2678057356963466,0.00702977065888392,-0.011069395230228948,0.02179793396290131
0.8160535117056856,-0.8850328005158344,0.8177483523265711,0.25283228842173555,0.006467209975959137,-0.008957440926574996,0.026862163427328306
0.822742474916388,-0.8605381606257707,0.8192281406639035,0.22442863047208117,0.005868509557907058,-0.0069983519137678625,0.03059565454432962
0.8294314381270903,-0.8355782339795693,0.8216872701302476,0.1883269959745687,0.005281824222044311,-0.005369674088958028,0.03322926165138416
0.8361204013377926,-0.8102166418732166,0.8248789525616911,0.1475288677078226,0.0047299074269588496,-0.0041303011142895425,0.03492529541190246
0.842809364548495,-0.784454592125308,0.8287963877219218,0.10367532430739347,0.004221394431187315,-0.003277393610426955,0.03581324656713299
0.8494983277591973,-0.7583300501985508,0.8337965866653889,0.057817339026649504,0.0037628911847687268,-0.0028152367711340195,0.035958575085566734
0.8561872909698997,-0.7318369548170296,0.8392721030012765,0.010900874558966867,0.0033348926266088224,-0.0026129157577024697,0.035666323034294414
0.862876254180602,-0.705052166256829,0.845394945557045,-0.036503729942786126,0.002921601285820804,-0.0026207641353050252,0.03510843014986176
0.8695652173913043,-0.6779444308096017,0.8523898113215115,-0.08395540785405858,0.0024805516494547488,-0.0028392934718250956,0.03448098360618799
0.8762541806020067,-0.6505849939804988,0.8601649305719966,-0.13097175643061637,0.0019254256152395149,-0.0032516417529679115,0.03402618267103222
0.882943143812709,-0.6230161878018159,0.8688676281089972,-0.1766849507790666,0.0008484581667532721,-0.0041076164738051875,0.03414859229931353
0.8896321070234113,-0.5952498207023194,0.8785913391239635,-0.2183362362430499,-0.021987483458994775,-0.02076794160328333,0.03914521297398613
0.8963210702341137,-0.5673810512722295,0.8895439500089507,-0.2714493495127089,0.0023454393382097358,-0.005260671800511284,0.030292632658015118
0.903010033444816,-0.5394201517961247,0.9025811928169841,-0.3105307325979024,0.0062743453907082546,-0.004247530269814945,0.029800275231257663
0.9096989966555183,-0.5114964286664172,0.9175174278831151,-0.3425477199033258,0.008799564440869777,-0.006146557405399151,0.030448159092872223
0.9163879598662207,-0.4837279864558936,0.9353404933407354,-0.3644952628245503,0.01269392816617261,-0.009131015626736598,0.03150937455447873
0.9230769230769231,-0.45633410200913077,0.9566674717966478,-0.3702478830600655,-0.005979625391603461,0.0033005557938115947,0.03647863809451222
0.9297658862876255,-0.4294691716143642,0.9822362959848835,-0.35518426900618055,-0.008463695949392176,0.004036609032036979,0.040695407382179104
