# n,energy,berry,bcd_x,bcd_y,qmd_x,qmd_y
0.0000015,-3.1999956167262207,-0.00000000000000002215550892191847,0,0,0,0
0.006688963210702341,-3.1519119097814583,-0.000004690013791890526,-0.000000000000000000013797618001558216,-0.000000000000000000013038180907797575,0.0000000000000000000012541361993741526,0.000000000000000000010273975809962529
0.013377926421404682,-3.1045644630733307,-0.00003522837046910741,-0.0000000000000000000020491689155812632,-0.00000000000000000000010477098207526361,-0.000000000000000000004370223170915579,0.00000000000000000001822689882403306
0.020066889632107024,-3.058071671086021,-0.00011895345891981527,-0.0000000000000000001200289711388371,0.00000000000000000007593128331828545,0.00000000000000000006900897204091476,0.00000000000000000017480685523628173
0.026755852842809364,-3.0123309885121077,-0.0002865573610650428,-0.0000000000000000000838016477344089,0.000000000000000000891272692956469,-0.0000000000000000005562236811730787,0.00000000000000000032055900809588537
0.033444816053511704,-2.9673918676230957,-0.0005776712749186773,-0.00000000000000000036938004837516223,0.0000000000000000010848923710277633,-0.0000000000000000005139124806464672,-0.0000000000000000006774737364608653
0.04013377926421405,-2.923135036004652,-0.0010270760573420064,0.0000000000000000008110359948516675,-0.000000000000000003973616655428227,-0.0000000000000000006500530540370456,0.00000000000000000016860414734696677
0.046822742474916385,-2.8798641468488886,-0.0016781038878380286,-0.0000000000000000008631242942190062,-0.00000000000000000023547580513537984,0.0000000000000000005344212300415973,0.0000000000000000020053010101301923
0.05351170568561873,-2.8371945266451473,-0.0025774337078763028,0.00000000000000000219576272452646,0.00000000000000001276210874796726,0.0000000000000000007407365113343575,0.000000000000000001955730544127619
0.06020066889632107,-2.7988083109886293,-0.003664008565891289,0.0000000000000000008487231411204308,-0.000000000000000004296598146815324,0.000000000000000002567379260029818,-0.000000000000000001427984588230439
0.06688963210702341,-2.775161170404225,-0.004494122856265152,0.00000000000000001107796459968969,-0.000000000000000030618121425721754,0.0000000000000000007466464849904579,-0.000000000000000007499998635360466
0.07357859531772576,-2.7530878148106672,-0.00539034251996071,0.000000000000000012266582550323641,-0.0000000000000000050730246671387475,0.0000000000000000017815803785562728,-0.000000000000000008600515305637584
0.0802675585284281,-2.731184846077291,-0.006408932616414933,-0.000000000000000013086361799590708,0.000000000000000021661266153004273,-0.000000000000000015199087672977503,-0.0000000000000000052542690223506415
0.08695652173913043,-2.709474531703253,-0.007555748669996091,0.0000000000000000013095527802067928,0.000000000000000002557563786291518,-0.000000000000000024886550642198158,0.0000000000000000022007865593285885
0.09364548494983277,-2.6880037817886917,-0.008845276810655573,0.00000000000000001437757318741089,-0.000000000000000028617125051575896,0.000000000000000011468516369844285,0.000000000000000005610099793453682
0.10033444816053512,-2.666720650311815,-0.010289337752949356,-0.00000000000000001644294443615876,-0.00000000000000002977905186170784,0.0000000000000000003830556791271096,0.000000000000000009213809630561848
0.10702341137123746,-2.6455927642408414,-0.01189293949404714,-0.00000000000000004641479328736235,0.000000000000000015756813481125915,0.000000000000000005316066886326131,0.000000000000000001847366454617467
0.11371237458193979,-2.6246496434649877,-0.013675099321950726,-0.00000000000000006969815539026329,0.000000000000000003991108455378172,-0.000000000000000007548071902108579,0.000000000000000002685954202729469
0.12040133779264214,-2.603911326762146,-0.015656159024892324,-0.000000000000000009448646467786545,0.0000000000000000050558249046200596,-0.00000000000000003805629671615397,0.00000000000000002467887732457226
0.12709030100334448,-2.5833282953758583,-0.01783849267197938,-0.000000000000000019557982704997102,-0.0000000000000000751605195898789,-0.00000000000000002847475736872344,0.00000000000000001480559254689906
0.13377926421404682,-2.562992321174523,-0.020240556295659396,-0.000000000000000054675880606141193,-0.000000000000000015034879663589802,-0.000000000000000021593452694348913,-0.000000000000000005165440168901046
0.14046822742474915,-2.5428596987076877,-0.022879622978979736,-0.00000000000000005201658326973554,0.00000000000000009025608847825035,-0.000000000000000033704007559945575,-0.000000000000000023307775745872947
0.14715719063545152,-2.5228658674253945,-0.02578625846583142,-0.000000000000000035342400501323463,0.0000000000000001447156309160034,-0.000000000000000012199571559363178,0.000000000000000009739282569784687
0.15384615384615385,-2.5030786045396898,-0.028984402454626586,-0.000000000000000038506447869287934,0.00000000000000014343191043812146,0.000000000000000009794646304924605,0.000000000000000019923150176934942
0.1605351170568562,-2.483511083875185,-0.0324905746200383,0.000000000000000013583742034723079,-0.00000000000000003171456165670442,0.000000000000000017412253801651814,-0.000000000000000036914861431740214
0.16722408026755853,-2.464096867827285,-0.036331639006338116,0.0000000000000001497674131915452,-0.00000000000000020786959295065202,0.000000000000000053466012069059764,-0.00000000000000003838499232556108
0.17391304347826086,-2.4448450287584835,-0.04052669448308503,0.00000000000000008949744063814652,-0.00000000000000016440425009372833,0.00000000000000005740249895509311,-0.000000000000000019823162565267955
0.1806020066889632,-2.4258933915826595,-0.04510414609183782,-0.00000000000000008360617946402643,0.00000000000000006961484363531447,0.00000000000000005127263261638327,-0.0000000000000000008695605421454782
0.18729096989966554,-2.4070661548743613,-0.0500808439705296,-0.00000000000000013975878119946786,0.00000000000000010532489575408467,-0.000000000000000032592323515382614,-0.00000000000000006392008775117056
0.1939799331103679,-2.3883914537641204,-0.05558169835516046,-0.0000000000000001580592937676803,0.000000000000000050292848765630716,-0.00000000000000017054926757416554,-0.000000000000000005089234196273592
0.20066889632107024,-2.370053135461824,-0.06166104264123609,-0.00000000000000023204937657346843,0.00000000000000025594378448911374,-0.00000000000000010073190174423627,0.0000000000000001263128591758804
0.20735785953177258,-2.351874467578651,-0.06825267908211385,-0.0000000000000001662968036868821,-0.00000000000000017263690304947864,0.00000000000000010380662696755742,0.00000000000000004002982718322493
0.2140468227424749,-2.3338345644347616,-0.07545971652615711,-0.00000000000000021021485127250653,-0.00000000000000013606772071201267,0.00000000000000003232591641718255,0.00000000000000007147520415517643
0.22073578595317725,-2.3160240470648117,-0.08334828379856496,-0.0000000000000000504331623131925,0.00000000000000001888928044443285,-0.000000000000000011647812606088111,0.00000000000000007536765640891674
0.22742474916387959,-2.2984838757879844,-0.09193764430609033,0.000000000000000186454865005681,0.0000000000000000543433247707872,0.00000000000000004678030487598319,0.00000000000000006180287491506139
0.23411371237458195,-2.281160635556156,-0.1012567698700292,-0.00000000000000011301820319193996,0.00000000000000036126187347825145,-0.00000000000000017362511864017482,0.0000000000000002955782916906677
0.2408026755852843,-2.264008852875939,-0.11163097902413267,-0.000000000000000012735907765368194,-0.00000000000000033354125195772367,-0.0000000000000002717749747267084,0.000000000000000002919661486434154
0.24749163879598662,-2.247008047278626,-0.1231171576410068,0.000000000000000038507635869125065,0.000000000000000007881081875933315,0.00000000000000004567544716081295,-0.00000000000000006860678013111086
0.25418060200668896,-2.2302512231320133,-0.13569227790382782,-0.0000000000000002765459876701877,0.00000000000000020359710381466823,0.00000000000000011239284606247886,0.000000000000000035970672314665436
0.2608695652173913,-2.213783688810029,-0.14944124578249593,-0.00000000000000039223995147403334,0.00000000000000007329033814992864,0.00000000000000012638579866208233,0.000000000000000048576289848420076
0.26755852842809363,-2.1976019531809423,-0.16444665861547755,-0.0000000000000000028638668013506136,-0.00000000000000025409716813439774,0.0000000000000002608120435690459,-0.0000000000000001454963112649544
0.27424749163879597,-2.1816481755720907,-0.18135765808587143,-0.0000000000000004101097600901056,-0.00000000000000009748447640856742,-0.00000000000000005678040211733322,0.00000000000000010117820704616297
0.2809364548494983,-2.1660073763678382,-0.20011021814026897,-0.0000000000000006420722433106084,0.00000000000000019928975156632497,-0.00000000000000003285434796657304,-0.00000000000000006198023808737001
0.28762541806020064,-2.150613250197319,-0.22082988630879152,-0.0000000000000006912320930792028,-0.00000000000000011030755107248022,-0.00000000000000014323530114329132,-0.00000000000000008677055159704163
0.29431438127090304,-2.135452092245895,-0.24365090134862663,-0.0000730795958843302,-0.0000000000000010465552258412636,-0.00000000000000042227577969170764,-0.000023357712954069985
0.3010033444816054,-2.1206514773554668,-0.26991338243555324,-0.0008726244160868135,-0.0000000000000008276122032168524,0.00000000000000013771828609927985,-0.0002789083653417362
0.3076923076923077,-2.106227324411974,-0.29943960149249943,-0.0009220337024908678,-0.0000000000000005257758280403346,0.0000000000000002694343375103431,-0.00030649518051453133
0.31438127090301005,-2.092114852106238,-0.3319566450037444,-0.0006749443940377711,-0.00000000000000040177762804600635,0.0000000000000002235228913768837,-0.00024326841419242427
0.3210702341137124,-2.0784879593875667,-0.36970773882592894,-0.0006117878690010204,-0.0000000000000010453081404399445,0.0000000000000002530128122321,-0.0002334242235836736
0.3277591973244147,-2.0653732572249606,-0.4145784231235754,-0.0005754579524934169,-0.00000000000000022058895411940354,0.0000000000000002559903531733169,-0.00023072143859018598
0.33444816053511706,-2.0525814261863897,-0.46388236154284923,-0.0005522351488597365,0.0000000000000011430132982273852,0.00000000000000029435779389241746,-0.00023145566683895505
0.3411371237458194,-2.0409842876975204,-0.5290881450422292,-0.0005426217340335797,0.0000000000000009538715009813672,0.0000000000000009415959350513248,-0.0002351410946688168
0.34782608695652173,-2.030509350739056,-0.6137204356833323,-0.0002260524100826648,0.0000000000000007474422299969172,0.0000000000000015141673575047736,-0.00041048532289153505
0.35451505016722407,-2.0230004525839083,-0.74969802610715,0.0009018178368342866,0.0000000000000004953212391829571,0.0000000000000018893906397210426,-0.001039532962757533
0.3612040133779264,-2.0154915544287606,-0.8856756165309676,0.0020296880837512386,0.000000000000000243200248368997,0.0000000000000022646139219373114,-0.0016685806026235307
0.36789297658862874,-2.006909733493201,-1.0078027137898433,0.006800830888795345,-0.00000000000000006499157256787116,0.0000000000000021759141591727463,-0.004389111841844989
0.3745819397993311,-1.9972472595168187,-1.1159795269939468,0.015241495527435766,-0.00000000000000042965820621258935,0.0000000000000016199488499784704,-0.009216195530820226
0.38127090301003347,-1.986958888447235,-1.2150287909849922,0.024915875918907232,-0.0000000000000007024407993308257,0.0000000000000010288146226123989,-0.01480805256452852
0.3879598662207358,-1.9754593013459512,-1.2964147137381992,0.03697770356747721,-0.0000000000000007974123366830027,0.0000000000000003696226298885525,-0.021879874509112888
0.39464882943143814,-1.9633325664987131,-1.3720386165010467,0.048761791944455915,-0.0000000000000005599740758077553,0.0000000000000003652917374229981,-0.028625311768773525
0.4013377926421405,-1.950644882299617,-1.4425087075826157,0.06029745773618292,-0.00000000000000002521343424960774,0.00000000000000094669827623559,-0.035078815782009304
0.4080267558528428,-1.9374829360075132,-1.5052786329354246,0.06982895106275007,-0.0000000000000020788654470768927,0.0000000000000006689223863075813,-0.03768450009541208
0.41471571906354515,-1.9241429165244306,-1.5650126208008301,0.06079219023952047,-0.0000000000000027899880341691983,0.0000000000000007534944780753824,-0.03132943451904206
0.4214046822742475,-1.9105419418167822,-1.6201850154769433,0.010681709698583008,0.00000000000000026721347356802736,0.000000000000001902049433686356,-0.005994469756962342
0.4280936454849498,-1.8966148137560153,-1.6716407229689951,-0.0005721755702349808,0.0000000000000008828400432225706,0.0000000000000010188860504811598,-0.0003147017295701798
0.43478260869565216,-1.8825046758601764,-1.720781734004587,-0.0005811474011040826,0.0000000000000007517708728454237,-0.0000000000000003032473725880058,-0.00032324014964571046
0.4414715719063545,-1.86817627540907,-1.7668710232795808,-0.0005908175213311973,0.0000000000000005219449821028301,-0.0000000000000012583736129516173,-0.0003318839660974835
0.44816053511705684,-1.8537194460080018,-1.8094425969233336,-0.0006013413672849754,0.0000000000000015745618739176863,-0.00000000000000025447958064017347,-0.0003406506211018744
0.45484949832775917,-1.8391912818060059,-1.8497890436705593,-0.0006122965311833315,0.0000000000000011840780100421323,0.0000000000000005055509387759183,-0.00034942098116577853
0.46153846153846156,-1.8245928738087103,-1.8877949643893086,-0.0006236527948223564,-0.000000000000001814890201498971,0.00000000000000029163719356029646,-0.00035815944206085796
0.4682274247491639,-1.8098625385747151,-1.9220062184580033,-0.0006355561584382442,0.0000000000000014671612996872838,0.0000000000000010554647689528474,-0.00036679708604377386
0.47491638795986624,-1.795093978578504,-1.9538483983013573,-0.0006478235057281097,0.000000000000002294419554409245,0.00000000000000014897280339974834,-0.00037538880596073456
0.4816053511705686,-1.7898243827543237,2.0403054808594088,-0.006935579205250973,-0.003062503455867129,-0.016365913649454115,-0.01363268266156136
0.4882943143812709,-1.7748857505711504,2.084665312304127,-0.007751634614276026,-0.002525356636863309,-0.02550799763032468,-0.023072718536323717
0.49498327759197325,-1.7598884714145415,2.127904308669376,-0.00880092088026884,-0.002000654222479657,-0.041682659218859615,-0.036130093760787255
0.5016722408026756,-1.7448411330878875,2.169773227788008,-0.010088157767781204,-0.0015040811486259089,-0.06688934790435055,-0.05626135877476751
0.5083612040133779,-1.7297498194790337,2.209665003339244,-0.011650328102853501,-0.0010604056544874282,-0.1057806590441539,-0.0904817523215692
0.5150501672240803,-1.7149809747385314,2.2455335512091894,-0.01288680986362083,0.0008243436921361693,-0.12955679939358491,-0.11061160908417036
0.5217391304347826,-1.7005091637780225,2.2781149450783715,-0.01408265667150428,0.0030949574302934456,-0.14397074580406657,-0.12401677258504118
0.5284280936454849,-1.68633714662903,2.307291518306132,-0.015281374375517055,0.005591270724507612,-0.1503956788076549,-0.1320297503401676
0.5351170568561873,-1.6727985233433174,2.3278013780449887,-0.01657309474588204,0.00820343513709371,-0.14850277382306415,-0.13418643078939396
0.5418060200668896,-1.659796629251931,2.3392411722800377,-0.01790680090735588,0.01082971352669434,-0.1436046855401794,-0.13399464322203888
0.5484949832775919,-1.647209079148225,2.3436790609934635,-0.01927291924297238,0.01346688761859708,-0.13638665706270847,-0.13198988625928604
0.5551839464882943,-1.6362704928321874,2.3126761636572444,-0.02068406375432402,0.01597147939323929,-0.12699041037292338,-0.12784866440855183
0.5618729096989966,-1.6256047029330818,2.275037514924118,-0.022105852211157646,0.018447923926571776,-0.11749428646912545,-0.12357048906506427
0.568561872909699,-1.6180143906659865,2.1570367278287383,-0.023670596685517777,0.020562393745155352,-0.10874375978325625,-0.11930388040320196
0.5752508361204013,-1.6104240783988912,2.0390359407333585,-0.025235341159877904,0.02267686356373893,-0.09999323309738706,-0.11503727174133965
0.5819397993311036,-1.6015130109778963,1.954462270173694,-0.02894357646988685,0.02625015769448977,-0.08718004456270775,-0.10969880079153065
0.5886287625418061,-1.5902210471049956,1.9301469320705271,-0.0365158358650718,0.0324532425313662,-0.06704318429934748,-0.10242810711991825
0.5953177257525084,-1.5781691309951964,1.9235233563948806,-0.02693284990569784,0.02861106212517004,-0.021876139042980372,-0.06466708134466562
0.6020066889632107,-1.565484125125736,1.9316381722646447,-0.0030584261017949504,0.016400520854054638,0.04414268219626793,-0.001505621060184259
0.6086956521739131,-1.5743882854472435,1.430575764964342,28.041874684457053,-48.58458603803675,-24.016829645205345,13.83722078900834
0.6153846153846154,-1.5583256052674574,1.1302569190656957,-3.828327799780272,6.617457310214441,-22.26569704484939,12.960283614403444
0.6220735785953178,-1.541766151389334,0.7918633087445196,-3.947051488149139,7.112462243139651,-17.303043071338458,8.360631092801412
0.6287625418060201,-1.524814984834889,0.6091093251888577,-1.3335912393065426,2.5138523056559183,-13.166105258238975,6.462350363202614
0.6354515050167224,-1.507498414292417,0.5441149269293531,-1.0365898532261895,1.7415997826373018,-11.042972816139468,6.407170308952064
0.6421404682274248,-1.4898040625652549,0.5102931125667829,-0.9749802396044218,1.5597265719253048,-10.374200407204537,6.173141503327213
0.6488294314381271,-1.4717044213818378,0.49047024389705274,-0.9124362583228283,1.585192311506151,-9.952474579752304,6.034895804346915
0.6555183946488294,-1.4532438468567788,0.4786334078977282,-0.9402408389098547,1.6331217447372421,-9.74390422408091,5.905767449347104
0.6622073578595318,-1.4375165970788784,1.7322706661333602,-2.6132482614030623,-0.08443875765643906,0.08440769749090571,7.513249131451021
0.6688963210702341,-1.4182815755794655,1.7337022928590853,-2.1834839032931734,-0.06968195049510484,0.04995804975122878,5.325939315277065
0.6755852842809364,-1.3986655529158192,1.7391430513808774,-1.499319166102754,-0.05556006574227861,0.03310852469518073,3.1504181466305132
0.6822742474916388,-1.3776803791868695,1.7625078901763969,-0.6316033975581469,-0.040063484356533646,0.01693210407661266,1.1270905555186979
0.6889632107023411,-1.3535568762809123,1.8209012827681659,0.31275692818461676,-0.027642164957782944,0.001905429627294601,-0.5804161481285994
0.6956521739130435,-1.3275481971677237,1.8993483801758166,0.3096962273421371,-0.017591760495724567,-0.007805750475342622,-0.02792892569125882
0.7023411371237458,-1.295613031454752,1.6778140974743505,-0.48244459948674134,-0.010182736774500281,-0.014632642516453045,0.22578635809397782
0.7090301003344481,-1.2647682160022715,1.3551506709208803,-0.7104955790126048,-0.0049673822264023,-0.01824722198214655,-0.21051040266620463
0.7157190635451505,-1.2376900540934384,1.0964352816409675,-0.9700730813887002,-0.0019821700412090337,-0.0201721436973116,-0.35626373904859027
0.7224080267558528,-1.2141069185643811,0.8670177616688499,-1.2564955888896325,0.00011384233755366781,-0.020786191886651297,-0.39459197269029067
0.7290969899665551,-1.1943501277685822,0.649647216620279,-1.6673523850910361,0.0013260574451342973,-0.02072301350215906,-0.3157600622064888
0.7357859531772575,-1.174180917778552,0.5233958356827574,-1.54800876891522,0.0022426003843334717,-0.020176061977708833,-0.2181175697244442
0.7424749163879598,-1.1727415636937122,2.0228676265817844,-0.004335133280580827,-0.0058088851730550084,0.02470375480177222,0.004631368163192041
0.7491638795986622,-1.1504878672530845,1.792133867962511,-0.0039998952546581885,-0.004578285415033006,0.019593019003704658,0.004387695609087715
0.7558528428093646,-1.130321700004223,1.4442776644956887,-0.0036510889654896733,-0.0036115081703533766,0.01562688114505172,0.004118923161279085
0.7625418060200669,-1.1255153944418594,1.0343616662495143,-0.001922281669522617,0.0000000000000015341913663585212,-0.0000000000000006489431783240983,-0.00043741183988962206
