# n,energy,berry,bcd_x,bcd_y,qmd_x,qmd_y
0.00000016666666666666665,-3.3284390246333966,-0.00000006818561963535967,0,0,0,0
0.006688963210702341,-3.2813577819755846,-0.0027453499219230143,-0.0000000000000000011642613863790006,0.000000000000000009135552781800313,-0.000000000000000003600831608339783,0.0000000000000000006746672303174841
0.013377926421404682,-3.23514204058807,-0.005472518322172262,0.000000000000000004338589436079484,0.000000000000000015991669353683604,0.000000000000000002124861042690966,-0.0000000000000000014295877083397463
0.020066889632107024,-3.1897662444169796,-0.008138805961261405,0.00000000000000000746045482314953,0.0000000000000000036535390200311005,0.0000000000000000029404293299625653,0.0000000000000000031848588199448248
0.026755852842809364,-3.145281022189582,-0.010712694418240621,0.0000000000000000015691734431070633,-0.000000000000000006036503628915236,0.000000000000000003469005073321098,0.000000000000000008463090917040194
0.033444816053511704,-3.1016366774232673,-0.013173856963427589,-0.000000000000000007060716879330663,0.00000000000000002234067895383744,0.0000000000000000027553850098532336,0.000000000000000003496894805726132
0.04013377926421405,-3.058869307141649,-0.015515294317084698,-0.000000000000000008987897635870583,0.000000000000000012000219338815688,-0.000000000000000003494397530175775,0.00000000000000002100247652278364
0.046822742474916385,-3.0169540199370046,-0.01774472808849202,0.0000019362855786043745,0.000005829930456212054,0.00008421100626841268,-0.00006730922431864244
0.05351170568561873,-2.97588107615587,-0.01987719356007472,0.00007338875419364313,0.00000772311952124925,0.0002442672068652982,-0.0001318884941387579
0.06020066889632107,-2.9357274514196,-0.021956779368653485,0.00017811800922897664,0.0000073624730014618,0.00034288884602338,-0.00012479236597804668
0.06688963210702341,-2.8964259806959736,-0.024047223771365544,0.00032236413508188584,0.000012073325563672934,0.000464713043372268,-0.0001226240401477429
0.07357859531772576,-2.858097164746287,-0.026305210615519648,0.0005240381855149905,0.00002154533652832197,0.000562312012935638,-0.00010846078816657266
0.0802675585284281,-2.820694082274772,-0.028904829880389685,0.000792122653410823,0.000037082018316160676,0.0005414577522735852,-0.00007986101791967672
0.08695652173913043,-2.784322599072983,-0.032146385663524,0.0011269031946251104,0.00006109500259030014,0.0002343522275797373,-0.00005169699218777485
0.09364548494983277,-2.7490038619865995,-0.036667315036972244,0.001519138960001688,0.00009897946972681548,-0.0007263867520757707,-0.00008494557765117904
0.10033444816053512,-2.7258242606321863,-0.03980083882713502,0.0017917708845381407,0.00013443893660549232,-0.001945380252277122,-0.0002018769573574266
0.10702341137123746,-2.706164778335187,-0.043273023434733514,0.002014338470588207,0.0001738349310905587,-0.003561806284266861,-0.0004280640895924375
0.11371237458193979,-2.6870976631733616,-0.04825851531261595,0.002203507570230124,0.0002211151705754421,-0.005757177595531344,-0.0008169331928719545
0.12040133779264214,-2.6684200892074537,-0.05544430057299042,0.0023449914875874516,0.0002763822553548404,-0.0085946971897545,-0.0014187558498125112
0.12709030100334448,-2.6501897140566464,-0.06569891874723735,0.0024252033120104573,0.0003381747632326257,-0.01205723830948693,-0.00226870763490222
0.13377926421404682,-2.632511599684794,-0.08018423665031879,0.002436989243659113,0.0004038814156018938,-0.016049937425550796,-0.0033758808535256234
0.14046822742474915,-2.6157156894726015,-0.1023819266068222,0.0023674200226903594,0.00046904032896228395,-0.020434095340360198,-0.00476104944294814
0.14715719063545152,-2.600963898424668,-0.14185639221387966,0.0022429298367341315,0.0005232149851453427,-0.02456400716251092,-0.006231556375447901
0.15384615384615385,-2.5858029989345415,-0.18042504225741124,0.00207703502853407,0.0005739602188901331,-0.028881354549304714,-0.007892069137408428
0.1605351170568562,-2.568796206744746,-0.20908868854899856,0.0018437167433804323,0.0006215020991247864,-0.033718388671081546,-0.009937684204171784
0.16722408026755853,-2.549665285075237,-0.22594258944805806,0.001539771426259455,0.0006524886619063228,-0.03876968169361325,-0.012390957895587964
0.17391304347826086,-2.5291471337742615,-0.23580125421075637,0.0012095009108057352,0.0006582893717405582,-0.04352202753380205,-0.015032625727715384
0.1806020066889632,-2.5074494297689185,-0.2396198736431227,0.0008851938487075306,0.0006342943609401455,-0.047761675618999376,-0.017746250318730467
0.18729096989966554,-2.48461242066214,-0.23796996020400546,0.0005922623736937596,0.0005792325254096813,-0.051489532886584956,-0.020484505115926484
0.1939799331103679,-2.46071967928895,-0.23111852489243856,0.0003469990321812549,0.0004949150434231731,-0.05488124358012872,-0.023264721106619077
0.20066889632107024,-2.4357157999504784,-0.21896494465466462,0.00013983981856929134,0.00039642804027879505,-0.05827199974541766,-0.02627882289007999
0.20735785953177258,-2.4125158149167043,-0.18273780855061417,0.002116971046533219,-0.0009254582358229596,-0.07000145086507172,-0.029898287577085462
0.2140468227424749,-2.395217993934768,-0.09874732540086825,0.008648700574765703,-0.004861269845720092,-0.09858270327361872,-0.03344164219799255
0.22073578595317725,-2.379178949078262,-0.016958611172444238,0.002423710696808832,-0.0016558928824522644,-0.08745363843991424,-0.03703144221365032
0.22742474916387959,-2.363486755911239,0.060333799879537714,0.00031629851087109577,-0.0006518180922009579,-0.08956143350944634,-0.04122585689206728
0.23411371237458195,-2.348115816544604,0.13459334305795412,0.000024894523780203274,-0.0005914597654109633,-0.09741887539149997,-0.04578568764750263
0.2408026755852843,-2.333138422633267,0.20633700378029532,-0.0001593423513635899,-0.000526375915314908,-0.10541903797300053,-0.05058691694081799
0.24749163879598662,-2.318782569648803,0.2775013549956081,-0.0002742507578284665,-0.0004384402973319277,-0.11352967606616217,-0.055645435853940786
0.25418060200668896,-2.304855145395543,0.34953535048514683,-0.0003576147957899702,-0.0003387774570700636,-0.12173637302835333,-0.06083386865117139
0.2608695652173913,-2.2915711702490134,0.4234864076499193,-0.0004014237356272285,-0.00022343938102756912,-0.1300969239836655,-0.06619457794321841
0.26755852842809363,-2.28018070959637,0.5128034511929305,-0.0004129775324750111,-0.00010874759042031395,-0.1381557364341358,-0.07128316755555118
0.27424749163879597,-2.2695906772776353,0.6086160198113024,-0.00041089640313320667,0.00000567100176367675,-0.14608699768313044,-0.07625672646568403
0.2809364548494983,-2.261369139325313,0.7298659530653528,-0.00039368322157639295,0.00010277930662861424,-0.15347982144215178,-0.08058786440771162
0.28762541806020064,-2.254393327347755,0.8644948439836448,-0.000368511232617269,0.00019078314628992612,-0.16058945028352467,-0.08458111660339716
0.29431438127090304,-2.247417515370197,0.9991237349019381,-0.00034333924365814484,0.0002787869859512388,-0.16769907912489765,-0.08857436879908273
0.3010033444816054,-2.2385598454840925,1.1179378768456385,-0.0002850165134390441,0.00039399589940997137,-0.18122885114207665,-0.09431340609845906
0.3076923076923077,-2.2281432207614995,1.223650881190254,-0.00019923129086825357,0.0005317418392727209,-0.20007715077466054,-0.10149867380583193
0.31438127090301005,-2.2170797520602994,1.3244276013362768,-0.000003331692898978102,0.0006293192674189909,-0.24750377315794847,-0.09799930936160375
0.3210702341137124,-2.205272915588535,1.4195314317269079,0.0003191138426598553,0.0006807341308833656,-0.3277732521994834,-0.08222092332250314
0.3277591973244147,-2.192927004218609,1.5082066434747834,0.0019246161298827353,-0.00010883435002335842,1.4293771403070499,-2.074286935004962
0.33444816053511706,-2.1802627945496145,1.5930860591536373,0.00428770290686005,-0.001394963826389602,4.271437295414545,-5.25189035302693
0.3411371237458194,-2.1674970299533673,1.654901722299015,0.0020353925377194827,0.0001901689695263571,2.0613265157301144,-2.564219586223237
0.34782608695652173,-2.154922289392785,1.714333434085211,-0.00011154613637114145,0.00162072385750735,-0.032157558209782784,-0.05004813305624066
0.35451505016722407,-2.14306089892522,1.7727530883225728,-0.00038641117809678984,0.00156954802064743,-0.07183517061078028,-0.05594458613306418
0.3612040133779264,-2.131033274861526,1.838142152481472,-0.000684608644134959,0.0013881584683523617,-0.08583856613571529,-0.05346237348638451
0.36789297658862874,-2.1187468637952502,1.9143809650989363,-0.001019129261999377,0.0010040564806815693,-0.05987318408665366,-0.0379365292350423
0.3745819397993311,-2.105995630148854,1.9973566521643191,-0.0013107270768436942,0.0007163967765926864,-0.0452944365252845,-0.029428045372654314
0.38127090301003347,-2.092967012799886,2.0843525810553887,-0.0015767106325369588,0.00048628917700242226,-0.03751068337491657,-0.02510718382083269
0.3879598662207358,-2.079731256623239,2.176893980752337,-0.001827433939418478,0.00032458149312404816,-0.03443766668335108,-0.02363332498905794
0.39464882943143814,-2.066536992851559,2.271063040920454,-0.002080222270820085,0.0001801187352006431,-0.03205935483046338,-0.022583961151436082
0.4013377926421405,-2.0534460516865796,2.368161032794059,-0.0023385599846452295,0.00006589454508113755,-0.030738405754672345,-0.022183279402185577
0.4080267558528428,-2.0413375467173607,2.4663341071909857,-0.002597872293436794,-0.0000179296074781755,-0.029814914906730956,-0.022027732224616233
0.41471571906354515,-2.0297165962616774,2.56504071377955,-0.0028576682653678044,-0.00008666710546585774,-0.029088671018710165,-0.02199383820616538
0.4214046822742475,-2.0172440020183915,2.669534682453747,-0.0031805054676120616,-0.00012681040235563184,-0.028432455083698578,-0.022101496824098513
0.4280936454849498,-2.0043214123629767,2.7766603463481165,-0.003534045530881856,-0.0001543638744516137,-0.027786693481774496,-0.022261473298726152
0.43478260869565216,-1.9890458902316037,2.895601530294359,-0.0040362277112006295,-0.0001275818737948448,-0.027074456438261733,-0.022592446427787953
0.4414715719063545,-1.9725253035111523,3.0233797665187403,-0.004675678325132851,-0.00003110137484378305,-0.026316278492257136,-0.023055028904307457
0.44816053511705684,-1.954696736060495,3.1617327130714377,-0.005495571363386972,0.00016547510622733633,-0.0254966424623423,-0.023660559350578262
0.45484949832775917,-1.935413735616325,3.3139319927981394,-0.0065820153015721024,0.0005219519771212795,-0.024582756643445957,-0.024427635924564088
0.46153846153846156,-1.914542734900062,3.4841635150343007,-0.0080776865762023,0.0011391994331754664,-0.02351907881989796,-0.02536781443441469
0.4682274247491639,-1.891873097173033,3.6783415584992185,-0.010252612140676928,0.0022129159281752808,-0.022193210423241717,-0.02650122696579601
0.47491638795986624,-1.8671388210475324,3.9047455825855466,-0.013714264367110901,0.004191532469014109,-0.020378426073371037,-0.0279286224238518
0.4816053511705686,-1.840037264277842,4.175157287766508,-0.020490598993537168,0.008466708267186747,-0.017857940646769932,-0.030608198541983805
0.4882943143812709,-1.8101316003664647,4.50929519176665,-0.0470967658825646,0.025408607706117418,-0.015505523866822433,-0.045892205292258806
0.49498327759197325,-1.7737665471239226,4.997812218650278,-0.0001910910909587761,-0.0000232282796961411,-0.0063747586915080265,-0.005670592552005195
0.5016722408026756,-1.7309762233187618,5.744160184044468,-0.0003550526310066462,0.0009677101032613396,-0.019246127309485852,-0.016036689694925742
0.5083612040133779,-1.6907016759825735,6.009175431355749,-0.00038623374847644455,0.0026679353526366124,-0.026123013238414938,-0.021960943819026274
0.5150501672240803,-1.663956254823827,5.855046738438699,-0.001583032826108803,0.0045812268990831784,-0.024111863323968846,-0.018621996151069783
0.5217391304347826,-1.6391382645270294,5.7090090062269505,-0.0016885311512560598,0.00585077727685296,-0.02285758187478076,-0.01800712585029281
0.5284280936454849,-1.6158830970861686,5.566405741177875,-0.0017813699763210534,0.007078456906715755,-0.021536072857306403,-0.01782018631764707
0.5351170568561873,-1.5940672703701546,5.422888189989949,-0.002076149006716022,0.008336472847982264,-0.01947030898874968,-0.01689568480414879
0.5418060200668896,-1.5735849075762967,5.275231477889081,-0.0024564149714831176,0.009527292842110626,-0.016948383606729733,-0.015485652277755455
0.5484949832775919,-1.5542315023840707,5.120772919042589,-0.002864834675885154,0.010606948799816522,-0.01416914919800296,-0.013732038757512478
0.5551839464882943,-1.5359117089665455,4.956246065647571,-0.003259761838328456,0.011543692285912848,-0.01129217243430759,-0.01175810379798566
0.5618729096989966,-1.5185838145231862,4.778170533297391,-0.0036150903345751897,0.012328519551962284,-0.008453218924725423,-0.009686969292945824
0.568561872909699,-1.5021495520602124,4.583754047969968,-0.003919620270952657,0.012969336612667208,-0.005720572938285347,-0.007597114561916356
0.5752508361204013,-1.4865780149259173,4.369682686980863,-0.004164465697421802,0.013466160411389287,-0.003138068194336509,-0.005537515091628595
0.5819397993311036,-1.4724624676306022,4.1025014827756605,-0.004315064236012062,0.013771068396375962,-0.0008661499808855825,-0.00364784504037257
0.5886287625418061,-1.4591458901785495,3.800591493697298,-0.004421604924517892,0.013992910695091428,0.0012459455912130911,-0.0018687923520181826
0.5953177257525084,-1.4469749509625234,3.4473717141320344,-0.004467045584318511,0.014101670169219968,0.003131745769899092,-0.0002530567860911338
0.6020066889632107,-1.4346033211186318,3.1772034990123315,-0.0044640197974194565,0.014127721752456478,0.005073020640779262,0.0013992417939428946
0.6086956521739131,-1.4220911504287261,2.9651951354717436,-0.004427053634256115,0.014095854153907376,0.007053143664441971,0.0030771449425114616
0.6153846153846154,-1.4102091832724737,2.781803965119204,-0.00432959636458934,0.013956615767551016,0.009234813606350045,0.004823596778395181
0.6220735785953178,-1.3984578503364902,2.6030311765788294,-0.004221421141913162,0.013798093055942586,0.011460078274362594,0.00658596407211014
0.6287625418060201,-1.3884294272819797,2.4076838945052934,-0.00407931150375956,0.013560563213163368,0.0143674388363818,0.008658870124710956
0.6354515050167224,-1.3784010042274693,2.212336612431758,-0.003937201865605956,0.01332303337038415,0.017274799398401007,0.010731776177311773
0.6421404682274248,-1.370346047928613,1.972594004084697,-0.0038040515527949102,0.013060389877873946,0.021681585826313667,0.013631255073026767
0.6488294314381271,-1.3626354032016048,1.7251057245586554,-0.0036724643772308215,0.012793364796371201,0.02634997771338915,0.016674946479058542
0.6555183946488294,-1.3548105814162774,1.4794074580861043,-0.003539709753193799,0.01251575688866452,0.031160744952224755,0.019830558483791602
0.6622073578595318,-1.344193028424997,1.2774922894366065,-0.0033783997448291773,0.011979296726205924,0.039453963864555235,0.025723709475627715
0.6688963210702341,-1.3335754754337166,1.0755771207871088,-0.0032170897364645562,0.011442836563747326,0.04774718277688571,0.03161686046746383
0.6755852842809364,-1.3205065815187766,0.8733467401674982,-0.002972666558967576,0.010677906575947051,0.01970030527243154,0.026058137775444315
0.6822742474916388,-1.3066349496118848,0.6704057304407264,-0.0031820031696192935,0.010160291134458344,-0.1927821071507157,0.22325233122445914
0.6889632107023411,-1.291210790241716,0.46607956255709965,-0.00427746000845418,0.010126705262845306,-0.7650303250020009,0.8162413321416093
0.6956521739130435,-1.2741226388656492,0.2725617596091317,-0.002746313836278903,0.008678813846002532,0.0950225412384782,0.13591744393632732
0.7023411371237458,-1.2563330330865459,0.08545172016431672,-0.001101706446127757,0.007237582355723268,0.26861447737719724,-0.016229053605063617
0.7090301003344481,-1.237911252358845,-0.10262484385525776,0.0002992493398748041,0.005992243237681239,0.14265026313780296,0.06050235779232794
0.7157190635451505,-1.2188989077021894,-0.2985618651018552,0.0015348450925355868,0.004901589115648366,0.11599746357523472,0.055893604553772805
0.7224080267558528,-1.199328049219464,-0.5059545876418347,0.0029860231061720134,0.0037827016766214514,0.1019055080916957,0.05001020533416173
0.7290969899665551,-1.1791855895636862,-0.7299619756956064,0.004822015645663077,0.0025691266365992236,0.09203780716525362,0.04462154744427473
0.7357859531772575,-1.1585598969849396,-0.9765208089221792,0.007388566808141007,0.0011273268845243608,0.08411229217529918,0.03951798477692897
0.7424749163879598,-1.137402763228015,-1.2537291720616575,0.012717611540386857,-0.00155152550512726,0.07815408068622823,0.033942936907013124
0.7491638795986622,-1.115769424954536,-1.5724116460044133,0.03796987324884255,-0.014760991465735005,0.08482169283986005,0.023249167657549093
0.7558528428093646,-1.093240744877592,-1.9312428087622406,0.004278752616373028,0.0054249918262661454,0.05085583164656001,0.028428661651206926
0.7625418060200669,-1.0622591913587178,-1.9930055217918836,0.005372006750264643,0.004945445737436971,0.047580065290980904,0.026124976381934166
0.7692307692307693,-1.0276774616371949,-1.851832078676591,0.006685367880643188,0.004447515756017757,0.044403494654107846,0.023838754371435053
0.7759197324414716,-0.9947259759424669,-1.7040345045259306,0.008101326550386418,0.003980400190312806,0.041610558218459555,0.02186719599133686
0.782608695652174,-0.9632339202899864,-1.5499049742446338,0.009648520643281562,0.0035022095137364345,0.038897798122008435,0.020076327481055735
0.7892976588628763,-0.9334062193747991,-1.3872826603694919,0.011385348081949935,0.0029660006863825527,0.036038065824927974,0.01842593916178843
0.7959866220735786,-0.9050016630532648,-1.215450996362053,0.01330087100839632,0.002339634460142387,0.03287676926459792,0.016872289448706664
0.802675585284281,-0.8782089733309278,-1.0314235924489954,0.015380842790657523,0.0015897380225476545,0.02932797945677717,0.015449309762008393
0.8093645484949833,-0.8534060225583883,-0.8268423490687443,0.017592186106403656,0.0006663582891536134,0.02535609969020963,0.014269859038142771
0.8160535117056856,-0.8310471059041803,-0.5864853591905588,0.019824566802042403,-0.0004011062166456305,0.021275821503374395,0.013456485669092228
0.822742474916388,-0.8117668582592104,-0.29075034867948896,0.021987869741365115,-0.0015732122097683876,0.01742962666977236,0.013088063399538562
0.8294314381270903,-0.7922930286892069,-0.03410214188716737,0.024672937127018638,-0.0031956461899365256,0.013270196303936475,0.013362329858468804
0.8361204013377926,-0.7704964897302682,0.1342582585803124,0.02967956114199065,-0.006373727213508448,0.008189647953905956,0.015544570992156491
0.842809364548495,-0.7475086491947205,0.25895575058133247,0.06285630619561379,-0.026107562561808666,-0.003414345083334128,0.03753862687125255
0.8494983277591973,-0.7237519604728779,0.35702298072843197,0.01296706576011424,0.0020735248399471936,0.005193086681771472,0.0038415238593526918
0.8561872909698997,-0.6994508729088218,0.4385249359722541,0.011947652871401994,0.001905755960796563,0.0025185377918598025,0.003598396235680279
0.862876254180602,-0.6748090079414398,0.5102764772647077,0.010516031348684961,0.0018176581718509085,0.0006273727051558807,0.0034874466954627004
0.8695652173913043,-0.6498725585525315,0.5762161178282875,0.008825634212165732,0.0017977108697426261,-0.000568943518794682,0.003423325807723352
0.8762541806020067,-0.6247973836802974,0.6395970235396042,0.0070431997478553506,0.0018276171406300867,-0.0012201733799440827,0.0033482583418264233
0.882943143812709,-0.5997111115227132,0.7022604000219045,0.005306373620020275,0.0018879095032475488,-0.0014933797723644658,0.0032381770891497736
0.8896321070234113,-0.5747057882610461,0.7664002718853947,0.0037065939401667893,0.001963390888867815,-0.001534680205082371,0.0030957216244010236
0.8963210702341137,-0.5501544647971552,0.8342047076051265,0.0023255709673604043,0.002043397689919471,-0.0014496535742062628,0.002940424229351746
