# n,energy,berry,bcd_x,bcd_y,qmd_x,qmd_y
0.0000015,-3.1999956167262207,-0.00000000000000002215550892191847,0,0,0,0
0.006688963210702341,-3.1519119097814583,-0.000004690013791890526,-0.000000000000000000013797618001558216,-0.000000000000000000013038180907797575,0.0000000000000000000012541361993741526,0.000000000000000000010273975809962529
0.013377926421404682,-3.1045644630733307,-0.00003522837046910741,-0.0000000000000000000020491689155812632,-0.00000000000000000000010477098207526361,-0.000000000000000000004370223170915579,0.00000000000000000001822689882403306
0.020066889632107024,-3.058071671086021,-0.00011895345891981527,-0.0000000000000000001200289711388371,0.00000000000000000007593128331828545,0.00000000000000000006900897204091476,0.00000000000000000017480685523628173
0.026755852842809364,-3.0123309885121077,-0.0002865573610650428,-0.0000000000000000000838016477344089,0.000000000000000000891272692956469,-0.0000000000000000005562236811730787,0.00000000000000000032055900809588537
0.033444816053511704,-2.9673918676230957,-0.0005776712749186773,-0.00000000000000000036938004837516223,0.0000000000000000010848923710277633,-0.0000000000000000005139124806464672,-0.0000000000000000006774737364608653
0.04013377926421405,-2.923135036004652,-0.0010270760573420064,0.0000000000000000008110359948516675,-0.000000000000000003973616655428227,-0.0000000000000000006500530540370456,0.00000000000000000016860414734696677
0.046822742474916385,-2.8798641468488886,-0.0016781038878380286,-0.0000000000000000008631242942190062,-0.00000000000000000023547580513537984,0.0000000000000000005344212300415973,0.0000000000000000020053010101301923
0.05351170568561873,-2.8371945266451473,-0.0025774337078763028,0.00000000000000000219576272452646,0.00000000000000001276210874796726,0.0000000000000000007407365113343575,0.000000000000000001955730544127619
0.06020066889632107,-2.7988083109886293,-0.003664008565891289,0.0000000000000000008487231411204308,-0.000000000000000004296598146815324,0.000000000000000002567379260029818,-0.000000000000000001427984588230439
0.06688963210702341,-2.775161170404225,-0.004494122856265152,0.00000000000000001107796459968969,-0.000000000000000030618121425721754,0.0000000000000000007466464849904579,-0.000000000000000007499998635360466
0.07357859531772576,-2.7530878148106672,-0.00539034251996071,0.000000000000000012266582550323641,-0.0000000000000000050730246671387475,0.0000000000000000017815803785562728,-0.000000000000000008600515305637584
0.0802675585284281,-2.731184846077291,-0.006408932616414933,-0.000000000000000013086361799590708,0.000000000000000021661266153004273,-0.000000000000000015199087672977503,-0.0000000000000000052542690223506415
0.08695652173913043,-2.709474531703253,-0.007555748669996091,0.0000000000000000013095527802067928,0.000000000000000002557563786291518,-0.000000000000000024886550642198158,0.0000000000000000022007865593285885
0.09364548494983277,-2.6880037817886917,-0.008845276810655573,0.00000000000000001437757318741089,-0.000000000000000028617125051575896,0.000000000000000011468516369844285,0.000000000000000005610099793453682
0.10033444816053512,-2.666720650311815,-0.010289337752949356,-0.00000000000000001644294443615876,-0.00000000000000002977905186170784,0.0000000000000000003830556791271096,0.000000000000000009213809630561848
0.10702341137123746,-2.6455927642408414,-0.01189293949404714,-0.00000000000000004641479328736235,0.000000000000000015756813481125915,0.000000000000000005316066886326131,0.000000000000000001847366454617467
0.11371237458193979,-2.6246496434649877,-0.013675099321950726,-0.00000000000000006969815539026329,0.000000000000000003991108455378172,-0.000000000000000007548071902108579,0.000000000000000002685954202729469
0.12040133779264214,-2.603911326762146,-0.015656159024892324,-0.000000000000000009448646467786545,0.0000000000000000050558249046200596,-0.00000000000000003805629671615397,0.00000000000000002467887732457226
0.12709030100334448,-2.5833282953758583,-0.01783849267197938,-0.000000000000000019557982704997102,-0.0000000000000000751605195898789,-0.00000000000000002847475736872344,0.00000000000000001480559254689906
0.13377926421404682,-2.562992321174523,-0.020240556295659396,-0.000000000000000054675880606141193,-0.000000000000000015034879663589802,-0.000000000000000021593452694348913,-0.000000000000000005165440168901046
0.14046822742474915,-2.5428596987076877,-0.022879622978979736,-0.00000000000000005201658326973554,0.00000000000000009025608847825035,-0.000000000000000033704007559945575,-0.000000000000000023307775745872947
0.14715719063545152,-2.5228658674253945,-0.02578625846583142,-0.000000000000000035342400501323463,0.0000000000000001447156309160034,-0.000000000000000012199571559363178,0.000000000000000009739282569784687
0.15384615384615385,-2.5030786045396898,-0.028984402454626586,-0.000000000000000038506447869287934,0.00000000000000014343191043812146,0.000000000000000009794646304924605,0.000000000000000019923150176934942
0.1605351170568562,-2.483511083875185,-0.0324905746200383,0.000000000000000013583742034723079,-0.00000000000000003171456165670442,0.000000000000000017412253801651814,-0.000000000000000036914861431740214
0.16722408026755853,-2.464096867827285,-0.036331639006338116,0.0000000000000001497674131915452,-0.00000000000000020786959295065202,0.000000000000000053466012069059764,-0.00000000000000003838499232556108
0.17391304347826086,-2.4448450287584835,-0.04052669448308503,0.00000000000000008949744063814652,-0.00000000000000016440425009372833,0.00000000000000005740249895509311,-0.000000000000000019823162565267955
0.1806020066889632,-2.4258933915826595,-0.04510414609183782,-0.00000000000000008360617946402643,0.00000000000000006961484363531447,0.00000000000000005127263261638327,-0.0000000000000000008695605421454782
0.18729096989966554,-2.4070661548743613,-0.0500808439705296,-0.00000000000000013975878119946786,0.00000000000000010532489575408467,-0.000000000000000032592323515382614,-0.00000000000000006392008775117056
0.1939799331103679,-2.3883914537641204,-0.05558169835516046,-0.0000000000000001580592937676803,0.000000000000000050292848765630716,-0.00000000000000017054926757416554,-0.000000000000000005089234196273592
0.20066889632107024,-2.370053135461824,-0.06166104264123609,-0.00000000000000023204937657346843,0.00000000000000025594378448911374,-0.00000000000000010073190174423627,0.0000000000000001263128591758804
0.20735785953177258,-2.351874467578651,-0.06825267908211385,-0.0000000000000001662968036868821,-0.00000000000000017263690304947864,0.00000000000000010380662696755742,0.00000000000000004002982718322493
0.2140468227424749,-2.3338345644347616,-0.07545971652615711,-0.00000000000000021021485127250653,-0.00000000000000013606772071201267,0.00000000000000003232591641718255,0.00000000000000007147520415517643
0.22073578595317725,-2.3160240470648117,-0.08334828379856496,-0.0000000000000000504331623131925,0.00000000000000001888928044443285,-0.000000000000000011647812606088111,0.00000000000000007536765640891674
0.22742474916387959,-2.2984838757879844,-0.09193764430609033,0.000000000000000186454865005681,0.0000000000000000543433247707872,0.00000000000000004678030487598319,0.00000000000000006180287491506139
0.23411371237458195,-2.281160635556156,-0.1012567698700292,-0.00000000000000011301820319193996,0.00000000000000036126187347825145,-0.00000000000000017362511864017482,0.0000000000000002955782916906677
0.2408026755852843,-2.264008852875939,-0.11163097902413267,-0.000000000000000012735907765368194,-0.00000000000000033354125195772367,-0.0000000000000002717749747267084,0.000000000000000002919661486434154
0.24749163879598662,-2.247008047278626,-0.1231171576410068,0.000000000000000038507635869125065,0.000000000000000007881081875933315,0.00000000000000004567544716081295,-0.00000000000000006860678013111086
0.25418060200668896,-2.2302512231320133,-0.13569227790382782,-0.0000000000000002765459876701877,0.00000000000000020359710381466823,0.00000000000000011239284606247886,0.000000000000000035970672314665436
0.2608695652173913,-2.213783688810029,-0.14944124578249593,-0.00000000000000039223995147403334,0.00000000000000007329033814992864,0.00000000000000012638579866208233,0.000000000000000048576289848420076
0.26755852842809363,-2.1976019531809423,-0.16444665861547755,-0.0000000000000000028638668013506136,-0.00000000000000025409716813439774,0.0000000000000002608120435690459,-0.0000000000000001454963112649544
0.27424749163879597,-2.1816481755720907,-0.18135765808587143,-0.0000000000000004101097600901056,-0.00000000000000009748447640856742,-0.00000000000000005678040211733322,0.00000000000000010117820704616297
0.2809364548494983,-2.1660073763678382,-0.20011021814026897,-0.0000000000000006420722433106084,0.00000000000000019928975156632497,-0.00000000000000003285434796657304,-0.00000000000000006198023808737001
0.28762541806020064,-2.150613250197319,-0.22082988630879152,-0.0000000000000006912320930792028,-0.00000000000000011030755107248022,-0.00000000000000014323530114329132,-0.00000000000000008677055159704163
0.29431438127090304,-2.135452092245895,-0.24365090134862663,-0.0000730795958843302,-0.0000000000000010465552258412636,-0.00000000000000042227577969170764,-0.000023357712954069985
0.3010033444816054,-2.1206514773554668,-0.26991338243555324,-0.0008726244160868135,-0.0000000000000008276122032168524,0.00000000000000013771828609927985,-0.0002789083653417362
0.3076923076923077,-2.106227324411974,-0.29943960149249943,-0.0009220337024908678,-0.0000000000000005257758280403346,0.0000000000000002694343375103431,-0.00030649518051453133
0.31438127090301005,-2.092114852106238,-0.3319566450037444,-0.0006749443940377711,-0.00000000000000040177762804600635,0.0000000000000002235228913768837,-0.00024326841419242427
0.3210702341137124,-2.0784879593875667,-0.36970773882592894,-0.0006117878690010204,-0.0000000000000010453081404399445,0.0000000000000002530128122321,-0.0002334242235836736
0.3277591973244147,-2.0653732572249606,-0.4145784231235754,-0.0005754579524934169,-0.00000000000000022058895411940354,0.0000000000000002559903531733169,-0.00023072143859018598
0.33444816053511706,-2.0525814261863897,-0.46388236154284923,-0.0005522351488597365,0.0000000000000011430132982273852,0.00000000000000029435779389241746,-0.00023145566683895505
0.3411371237458194,-2.0409842876975204,-0.5290881450422292,-0.0005426217340335797,0.0000000000000009538715009813672,0.0000000000000009415959350513248,-0.0002351410946688168
0.34782608695652173,-2.030509350739056,-0.6137204356833323,-0.0002260524100826648,0.0000000000000007474422299969172,0.0000000000000015141673575047736,-0.00041048532289153505
0.35451505016722407,-2.0230004525839083,-0.74969802610715,0.0009018178368342866,0.0000000000000004953212391829571,0.0000000000000018893906397210426,-0.001039532962757533
0.3612040133779264,-2.0154915544287606,-0.8856756165309676,0.0020296880837512386,0.000000000000000243200248368997,0.0000000000000022646139219373114,-0.0016685806026235307
0.36789297658862874,-2.006909733493201,-1.0078027137898433,0.006800830888795345,-0.00000000000000006499157256787116,0.0000000000000021759141591727463,-0.004389111841844989
0.3745819397993311,-1.9972472595168187,-1.1159795269939468,0.015241495527435766,-0.00000000000000042965820621258935,0.0000000000000016199488499784704,-0.009216195530820226
0.38127090301003347,-1.986958888447235,-1.2150287909849922,0.024915875918907232,-0.0000000000000007024407993308257,0.0000000000000010288146226123989,-0.01480805256452852
0.3879598662207358,-1.9754593013459512,-1.2964147137381992,0.03697770356747721,-0.0000000000000007974123366830027,0.0000000000000003696226298885525,-0.021879874509112888
0.39464882943143814,-1.9633325664987131,-1.3720386165010467,0.048761791944455915,-0.0000000000000005599740758077553,0.0000000000000003652917374229981,-0.028625311768773525
0.4013377926421405,-1.950644882299617,-1.4425087075826157,0.06029745773618292,-0.00000000000000002521343424960774,0.00000000000000094669827623559,-0.035078815782009304
0.4080267558528428,-1.9374829360075132,-1.5052786329354246,0.06982895106275007,-0.0000000000000020788654470768927,0.0000000000000006689223863075813,-0.03768450009541208
0.41471571906354515,-1.9241429165244306,-1.5650126208008301,0.06079219023952047,-0.0000000000000027899880341691983,0.0000000000000007534944780753824,-0.03132943451904206
0.4214046822742475,-1.9105419418167822,-1.6201850154769433,0.010681709698583008,0.00000000000000026721347356802736,0.000000000000001902049433686356,-0.005994469756962342
0.4280936454849498,-1.8966148137560153,-1.6716407229689951,-0.0005721755702349808,0.0000000000000008828400432225706,0.0000000000000010188860504811598,-0.0003147017295701798
0.43478260869565216,-1.8825046758601764,-1.720781734004587,-0.0005811474011040826,0.0000000000000007517708728454237,-0.0000000000000003032473725880058,-0.00032324014964571046
0.4414715719063545,-1.86817627540907,-1.7668710232795808,-0.0005908175213311973,0.0000000000000005219449821028301,-0.0000000000000012583736129516173,-0.0003318839660974835
0.44816053511705684,-1.8537194460080018,-1.8094425969233336,-0.0006013413672849754,0.0000000000000015745618739176863,-0.00000000000000025447958064017347,-0.0003406506211018744
0.45484949832775917,-1.8391912818060059,-1.8497890436705593,-0.0006122965311833315,0.0000000000000011840780100421323,0.0000000000000005055509387759183,-0.00034942098116577853
0.46153846153846156,-1.8245928738087103,-1.8877949643893086,-0.0006236527948223564,-0.000000000000001814890201498971,0.00000000000000029163719356029646,-0.00035815944206085796
0.4682274247491639,-1.8098625385747151,-1.9220062184580033,-0.0006355561584382442,0.0000000000000014671612996872838,0.0000000000000010554647689528474,-0.00036679708604377386
0.47491638795986624,-1.795093978578504,-1.9538483983013573,-0.0006478235057281097,0.000000000000002294419554409245,0.00000000000000014897280339974834,-0.00037538880596073456
0.4816053511705686,-1.7803137409848102,-1.983204911254769,-0.0006604473080409528,0.0000000000000013092554938030873,-0.000000000000001588997581917689,-0.00038392592945379287
0.4882943143812709,-1.7656276964150193,-2.0085513167109506,-0.0006735281385028004,0.0000000000000024957075801162333,0.0000000000000000052856799623627776,-0.00039234212470088726
0.49498327759197325,-1.7510149583933339,-2.030642580413255,-0.0006868146106311644,0.000000000000002034943957060351,-0.0000000000000005745296090845135,-0.00040055820175771456
0.5016722408026756,-1.736471560722154,-2.049733848228255,-0.0007002705964332243,0.0000000000000014559845084861994,-0.0000000000000009087750044083926,-0.00040862211229506396
0.5083612040133779,-1.7220273932071173,-2.064608873870562,-0.0007139448284552842,0.0000000000000021095378487498838,0.0000000000000013493081270078322,-0.0004165044019943657
0.5150501672240803,-1.7077153942706538,-2.0734137501479295,-0.000727859808504721,0.0000000000000007216044456853159,0.0000000000000016648478566065797,-0.000424161615335229
0.5217391304347826,-1.6936015474305872,-2.077704430827463,-0.0007418164145237326,-0.0000000000000003338904842537679,0.000000000000001263890722180517,-0.00043162044372881803
0.5284280936454849,-1.6797595786803228,-2.076637462263553,-0.000755771921296825,-0.00000000000000031466937729784183,0.00000000000000028016778617167753,-0.0004388324257834579
0.5351170568561873,-1.6664617004223703,-2.0644791029613527,-0.0007694844542224991,0.0000000000000014190225467425402,-0.00000000000000159965235774203,-0.0004455788933033728
0.5418060200668896,-1.6535516813228928,-2.044899650528099,-0.0007829461607207362,0.000000000000002562773388096335,-0.0000000000000029241708095727803,-0.0004520512538995819
0.5484949832775919,-1.641350255659843,-2.011959063975392,-0.000795918171968189,0.00000000000000189447551343598,-0.0000000000000027503460976928604,-0.00045804623459423503
0.5551839464882943,-1.6315149551977286,-1.9331269633512453,-0.0008065083088530786,0.0000000000000002469554907675451,-0.0000000000000023866816066526834,-0.0004628001600019766
0.5618729096989966,-1.6232516074531262,-1.823806497095891,-0.0008155160299488447,-0.000000000000002051117983595043,-0.000000000000001896895659053558,-0.0004667295811822699
0.568561872909699,-1.6149102010871879,-1.7149521680928226,-0.0008246283821631885,-0.000000000000004171404983362623,-0.0000000000000013647412895781574,-0.0004706845329244799
0.5752508361204013,-1.6056463583241807,-1.611606288511217,-0.0008349771839892506,-0.000000000000004190748970478083,-0.00000000000000033190968860453835,-0.00047494118509575875
0.5819397993311036,-1.5963825155611737,-1.5082604089296114,-0.0008453259858153127,-0.0000000000000042100929575935435,0.000000000000000700921912369081,-0.00047919783726703755
0.5886287625418061,-1.5848963047004303,-1.4377887116630732,-0.0008584294265245905,-0.000000000000000842152836800448,-0.00000000000000009285667856461049,-0.00048431491028410413
0.5953177257525084,-1.5728378016342477,-1.3754034470687422,-0.0008722601988048178,0.000000000000002558252019266155,-0.0000000000000011857706200059938,-0.000489640109120736
0.6020066889632107,-1.5595687947648817,-1.3267358866527734,-0.0008877899383891825,-0.0000000000000014739447432976046,-0.0000000000000013818476366615834,-0.0004952854395485838
0.6086956521739131,-1.5456901596845949,-1.282713396520317,-0.0009042268296435575,-0.0000000000000010087654033627607,-0.0000000000000016691125682493577,-0.0005010574249113993
0.6153846153846154,-1.5311714617753822,-1.2435307343929276,-0.0009216270544618604,0.0000000000000029910874441596047,-0.000000000000001930673553353731,-0.000506954300516544
0.6220735785953178,-1.515874002152743,-1.209790004065572,-0.0009403303823157298,-0.000000000000002986965759023863,-0.0000000000000007003752470717353,-0.0005129058602074928
0.6287625418060201,-1.5001527657084395,-1.1797811044539221,-0.0009598729469773416,-0.0000000000000019100033534042267,-0.0000000000000003036291521585687,-0.0005188232879552861
0.6354515050167224,-1.4840402690342818,-1.1529125734347285,-0.0009801879795215255,0.000000000000002024999870047176,-0.0000000000000006545719752920288,-0.0005246713788005543
0.6421404682274248,-1.467519492520906,-1.1287796756325137,-0.0010013088496941332,0.000000000000005003966495190285,-0.0000000000000012835647070596973,-0.0005304188736447319
0.6488294314381271,-1.4504621233233324,-1.1066880386022178,-0.00102349857432687,0.0000000000000020946856756496113,0.00000000000000037760782776093333,-0.0005360549089919467
0.6555183946488294,-1.4328920888516896,-1.0870893804676507,-0.0010467669693108258,-0.0000000000000023623933732759598,0.0000000000000010852492721869391,-0.0005415297671869753
0.6622073578595318,-1.4148958918198158,-1.0690649488517727,-0.001070979147126876,0.000000000000001133201261774034,0.0000000000000002365521485916335,-0.0005468244192318139
0.6688963210702341,-1.3964214525770267,-1.0530082314591036,-0.0010962384078960516,0.000000000000004290169571657535,-0.0000000000000008353451426550439,-0.0005519185406184284
0.6755852842809364,-1.3775477208561073,-1.0385206873850734,-0.0011224689700436218,0.000000000000003067453213488614,-0.0000000000000005995532790237815,-0.0005567536428050481
0.6822742474916388,-1.358337204821011,-1.0252169808415057,-0.0011496098858978007,0.00000000000000040162459318793223,0.00000000000000003499283395313956,-0.0005612804457808323
0.6889632107023411,-1.338718184460734,-1.013334739310613,-0.001177788335065632,-0.0000000000000008768230164621164,-0.0000000000000006252670622365629,-0.0005654806674430668
0.6956521739130435,-1.318712333294397,-1.0024320443641797,-0.0012069997174230102,-0.0000000000000017102297571689354,-0.000000000000000213227240620101,-0.0005693116937391702
0.7023411371237458,-1.2983228044104786,-0.9922471493405217,-0.0012372640507539263,-0.000000000000001657072452748167,0.0000000000000012370404428954031,-0.0005727343638394295
0.7090301003344481,-1.2773594723827955,-0.9833826015560856,-0.0012688950636332674,0.0000000000000006846854735076189,-0.0000000000000002516384337843682,-0.0005757323288030524
