# n,energy,berry,bcd_x,bcd_y,qmd_x,qmd_y
0.00000016666666666666665,-3.0812143372426744,0.0000000008647414421175789,0,0,0,0
0.006688963210702341,-3.033444399295411,0.000039887626096127443,0.00011125723874493055,-0.00019270324363020855,0.00013181723774342906,-0.00007610447397648752
0.013377926421404682,-2.9864863257460996,0.00010464024217121132,0.00030273320501624965,-0.000524349133936761,0.0003478281544480006,-0.0002008184263324844
0.020066889632107024,-2.9462150675838767,0.00020336632349957683,0.0005037777711821684,-0.000872568871468672,0.0005342366791693657,-0.0003084419074123619
0.026755852842809364,-2.921320961673707,0.00029617296656569715,0.0006747294277078591,-0.001168665626057407,0.0005662172661428689,-0.0003269048707674668
0.033444816053511704,-2.8981703907669223,0.00040788542689383775,0.0008657143038140934,-0.0014994616088121874,0.0005109692668108504,-0.00029500761832937004
0.04013377926421405,-2.8752376430048447,0.0005421613451396071,0.0010666110885056883,-0.0018474247233117352,0.00038409314332824967,-0.00022175619935013916
0.046822742474916385,-2.852507642524296,0.0007006261461143277,0.0012671337627930882,-0.0021947402892306513,0.00018200492058785973,-0.00010508113577720066
0.05351170568561873,-2.829971507456838,0.0008846777737294171,0.0014584020783025636,-0.002526026609148447,-0.00010404714271130066,0.00006007154861108324
0.06020066889632107,-2.807636255071266,0.0010964249226019119,0.0016315641078335514,-0.002825951355280352,-0.0004854626400928912,0.0002802812311034957
0.06688963210702341,-2.7855114970864423,0.0013373673310180109,0.0017776404190274222,-0.0030789634620614127,-0.0009765376568904021,0.0005638040535737115
0.07357859531772576,-2.763585259722002,0.0016101325584881995,0.001888018930845865,-0.0030087849668498047,-0.0008148239798919596,0.001149765718639132
0.0802675585284281,-2.7418632734249764,0.0019169336386653418,0.0018663162878540499,-0.0033517789104333924,-0.0020452979422681938,0.0014446399681296474
0.08695652173913043,-2.720309816216128,0.0022599568326325133,0.0018840512818408149,-0.0034072888731429664,-0.0030496189409947787,0.002011127595403622
0.09364548494983277,-2.6989986606989187,0.0026429697632933376,0.0018278089704084088,-0.0033081284852281997,-0.004195527212582072,0.002730331197942429
0.10033444816053512,-2.6778965303485323,0.003068390733979122,0.0016848496496880932,-0.003063830814546255,-0.005607519446735149,0.003604949923120127
0.10702341137123746,-2.656964597242005,0.003537802725205966,0.0014441471954918514,-0.0026507542580320818,-0.007349839009123689,0.004667024287486687
0.11371237458193979,-2.63623775347448,0.00405281050772832,0.0011181516376544158,-0.00201836515465934,-0.009469844702523628,0.005936582357842472
0.12040133779264214,-2.615759569803811,0.004616796117335386,0.0007642509168495528,-0.001079084607559471,-0.011989059706040446,0.007408907133335124
0.12709030100334448,-2.595468524489775,0.005233542751425435,0.00009330183350316282,-0.00000792570476327247,-0.01537166862905932,0.00930638524621528
0.13377926421404682,-2.575371805119367,0.00590474308106033,-0.0007188771576860485,0.001411588522990261,-0.01950273794969587,0.011597215186899542
0.14046822742474915,-2.5554994014632233,0.006632347789717466,-0.001729537104479354,0.0031989160849593434,-0.024650729288438724,0.01439467730037545
0.14715719063545152,-2.535839968864565,0.0074168345315683785,-0.0029733844341391347,0.005406556332167576,-0.031106746076494232,0.017834140713782646
0.15384615384615385,-2.516390905626132,0.008259053923932317,-0.004483727710425182,0.00809172560276618,-0.03924050048379135,0.022091685293130006
0.1605351170568562,-2.4971745342126956,0.009160900147210998,-0.006288528547683764,0.011304677222857948,-0.04951301751993428,0.02739290836001016
0.16722408026755853,-2.4781932866782137,0.010121598400629853,-0.008408035800082692,0.01508317147940016,-0.06252068295293843,0.03404042637230656
0.17391304347826086,-2.4594468897466504,0.011135583652510654,-0.01085076015004844,0.01944653023930353,-0.07916110978899418,0.04250409513623406
0.1806020066889632,-2.4409596208392883,0.012195589967377931,-0.013562316610193161,0.024306154178700724,-0.10070780011954829,0.0534775701975293
0.18729096989966554,-2.422751656698641,0.013281890820294837,-0.01633637766138594,0.02930811639540419,-0.12824625106580834,0.06759756741124057
0.1939799331103679,-2.404843439869176,0.014367126165665236,-0.01874077311060058,0.033708268321005784,-0.16313024966635806,0.08567439414167477
0.20066889632107024,-2.3872644300978823,0.015407411109151708,-0.01989002864069366,0.03597629827805157,-0.20639427545739694,0.1083729688600646
0.20735785953177258,-2.370064538495485,0.01632533525079338,-0.01812359380322523,0.033237488727786965,-0.257763650472644,0.1356403450194093
0.2140468227424749,-2.3534229422423483,0.016953426964479008,-0.010813384509299962,0.020935364032995982,-0.31433780690550445,0.1659502257291634
0.22073578595317725,-2.3374658140894318,0.017151747914325506,0.0038482553631406778,-0.0040689999894288125,-0.3659000808879718,0.19353568317686873
0.22742474916387959,-2.321738661548885,0.01698967380881943,0.024997141555897055,-0.04026101804453751,-0.3283299823253028,0.16997381851671328
0.23411371237458195,-2.30563251997201,0.016611768544812264,0.05585749735282082,-0.09322570851954845,-0.09178288300415935,0.03198012197155645
0.2408026755852843,-2.2899143226825767,0.014719986555638083,0.09610533090864214,-0.16244325870041704,0.3785044821695187,-0.24032920602864144
0.24749163879598662,-2.274227827366812,0.011233309126010881,0.14148325689589644,-0.24054606915461318,0.9854240619594306,-0.5908140532436102
0.25418060200668896,-2.2573443996292575,0.006420302931112411,0.18557565424496522,-0.31641151563439635,1.5569731519311967,-0.9198909151818402
0.2608695652173913,-2.2395235868668584,0.0009175966901343365,0.22939903107659798,-0.39192108597289876,2.078044894630898,-1.2183633415912394
0.26755852842809363,-2.221620156256539,-0.004501759679620274,0.27913335686621965,-0.47788382672938445,2.5540560980267846,-1.4892702117806569
0.27424749163879597,-2.2038617719175155,-0.009479339706708566,0.33329718569601574,-0.5718326543251228,2.94403082798673,-1.709118982976927
0.2809364548494983,-2.1850287302421822,-0.016801079761208804,0.39500163372350977,-0.6792778237760912,3.1690715753508285,-1.8321296195771533
0.28762541806020064,-2.167978242177682,-0.01882890967528196,0.42524833388877364,-0.7326078492965604,3.5519002914664823,-2.046023675777754
0.29431438127090304,-2.151535439280654,-0.015525596183746247,0.4294197593052448,-0.7410952402053174,4.212990436239334,-2.420253848903593
0.3010033444816054,-2.133388984346471,-0.008564362090439473,0.4239906708321606,-0.7314302508663811,5.153762782036195,-2.952671707725596
0.3076923076923077,-2.1141045601152975,0.002231747821569614,0.4229033196941457,-0.7244861604289032,6.122667529197964,-3.495082286695
0.31438127090301005,-2.095260958751634,0.0182604306348042,0.42143303470917187,-0.7240632265660594,6.961587624924284,-3.9709601837683817
0.3210702341137124,-2.07696751141545,0.038842934174145326,0.41990144137749835,-0.7232170953498205,7.606433428363664,-4.350098390176507
0.3277591973244147,-2.058321344033504,0.06171350286841213,0.4102628652912409,-0.7058052457533547,8.19432292940369,-4.687552252722167
0.33444816053511706,-2.039448450739264,0.08737423874355564,0.3926483694118819,-0.6747840698181718,8.758928902396397,-5.0225368931403915
0.3411371237458194,-2.0225972279312723,0.10838143524372879,0.3520979352787441,-0.6038779990773047,9.040796498025475,-5.20102720084704
0.34782608695652173,-2.0069071101638363,0.12683876738606867,0.2946917764798103,-0.5033492921603918,9.083424237008323,-5.2487031536265185
0.35451505016722407,-1.9917832201026349,0.144095390648174,0.2338249498268745,-0.3978824764119049,9.06113377124544,-5.260129704751179
0.3612040133779264,-1.9769255422717464,0.1607262685193188,0.17911223692591433,-0.3050564721521723,9.095049627480492,-5.301868516994015
0.36789297658862874,-1.9631957777728541,0.17071986971815448,0.16795977261029332,-0.280239830279006,9.360431311402497,-5.524637937485954
0.3745819397993311,-1.9502235156224943,0.1712504138161425,0.23998058977303965,-0.39437402326905624,9.971045208700595,-6.022217741883438
0.38127090301003347,-1.9378520106355934,0.16427603155638032,0.37796416566960644,-0.6187068309227491,10.85545459408453,-6.737743150072267
0.3879598662207358,-1.9262071617071312,0.08577787099230776,1.5719889289079634,-3.0226977162327424,15.137914330758836,-8.527758840234728
0.39464882943143814,-1.9148523271385056,-0.05620052127023991,-0.5040509908654651,2.6140099786115636,20.68224748843095,-10.433732749829826
0.4013377926421405,-1.9044330555269096,-0.42664755119733394,-15.632017867551,40.23099915642879,30.233333743819887,-12.50163783732668
0.4080267558528428,-1.8950338078855409,-0.5585347516735177,-24.23937669254144,61.43201162847394,33.998948511549706,-12.75705205032609
0.41471571906354515,-1.8882918134111704,-0.06895237807129195,-15.859971576819596,39.86794468669186,22.692895473538755,-8.29076632588185
0.4214046822742475,-1.8815498189368,0.42062999553093383,-7.480566461097755,18.303877744909762,11.386842435527807,-3.8244806014376085
0.4280936454849498,-1.8742150466323144,0.795779431737538,-1.4917153840963573,2.949082655241278,2.6354514582351105,-0.3357721282282847
0.43478260869565216,-1.865497575478505,0.9040054392609659,-1.0790113062900375,2.0778809270022225,-0.15699822214535608,0.8726639195676017
0.4414715719063545,-1.8567801043246954,1.0122314467843938,-0.6663072284837178,1.206679198763167,-2.9494479025258222,2.081099967363488
0.44816053511705684,-1.8463823583182055,1.0758184927116217,-0.5375697678766503,0.9648848441655118,-3.944906088119249,2.5616587195549654
0.45484949832775917,-1.8359414961505551,1.1376522766258241,-0.4143371500023986,0.733801554523866,-4.891414424538142,3.017169682112138
0.46153846153846156,-1.8249663635028839,1.1769251730735266,-0.3568681765365331,0.6279664719385732,-5.2274626202316545,3.153546576492685
0.4682274247491639,-1.8140322752278368,1.21147025172394,-0.30544712212803404,0.5339710911252507,-5.437885607406166,3.2250512596065946
0.47491638795986624,-1.8032290452626092,1.2309420278353191,-0.2733081377129137,0.47772323241042386,-5.247788342801536,3.08972934560442
0.4816053511705686,-1.7924706570242208,1.242421873406579,-0.24636209889150387,0.4308287321791189,-4.9172079451503885,2.8815108772487417
0.4882943143812709,-1.78178521325972,1.240901167712535,-0.2278634752559576,0.39914943131139313,-4.3581022664155835,2.554710873783449
0.49498327759197325,-1.7715688960355407,1.2221752235104968,-0.21524041219932774,0.3776435950273268,-3.891663642760035,2.2821170477781516
0.5016722408026756,-1.7618176655022664,1.1863922024727824,-0.2084423127548376,0.36622361526933467,-3.517094078512664,2.0632626066394955
0.5083612040133779,-1.7533538420100636,1.1155563246807494,-0.20322984387476198,0.35746868489885886,-3.208513247616277,1.8828840703081267
0.5150501672240803,-1.746504485094141,1.0007625813282848,-0.2000058273387441,0.35205584682943125,-2.982685268776331,1.750756056400336
0.5217391304347826,-1.7396551281782182,0.8859688379758202,-0.19678181080272622,0.34664300876000365,-2.7568572899363843,1.6186280424925452
0.5284280936454849,-1.7311785354398277,0.7998641653392232,-0.19191027699252713,0.33832010796735135,-2.4648304785965935,1.4478302746300136
0.5351170568561873,-1.7211571685645464,0.7409947181330121,-0.18547471537511287,0.3272346145808669,-2.1099595220344742,1.240322378484643
0.5418060200668896,-1.710379324147473,0.6919565707096202,-0.17521846845007893,0.30944368510308684,-1.6610495017225761,0.9789872067475724
0.5484949832775919,-1.6988745877465674,0.6523652245565598,-0.16129096181220082,0.285209566669145,-1.12177825079856,0.6659299243363077
0.5551839464882943,-1.6866441068486047,0.6206683714583788,-0.13392407511136925,0.23774355455991905,-0.29747302318086377,0.19247830831248913
0.5618729096989966,-1.6741053991981334,0.5927078440435571,-0.09930514156685588,0.17798442422751637,0.6040580150228682,-0.3207978471082334
0.568561872909699,-1.661094309162489,0.5720035419224447,-0.0474108267306849,0.08970466689794339,1.4490837104284164,-0.7822210146089097
0.5752508361204013,-1.647339873717094,0.5558604401075948,0.020966471382063784,-0.019516914648126882,1.8248405700000019,-0.9088855297479318
0.5819397993311036,-1.633087196138752,0.546101648119574,0.1262052808829172,-0.17122133866479866,1.8398510404122692,-0.7374442460910886
0.5886287625418061,-1.6187379867673788,0.5502599888638763,0.3369665589302976,-0.43957114377932127,1.608854051843891,-0.22725638764366185
0.5953177257525084,-1.604137774929037,0.5828989479514897,1.2183006324984451,-1.9552045903032216,-0.8324863329001582,0.8362227022758133
0.6020066889632107,-1.5893768427177188,0.8778892072332838,11.07307471040922,-19.082576751354836,-9.462277581049882,5.488876260250279
0.6086956521739131,-1.5743882854472435,1.430575764964342,28.041874684457053,-48.58458603803675,-24.016829645205345,13.83722078900834
0.6153846153846154,-1.5583256052674574,1.1302569190656957,-3.828327799780272,6.617457310214441,-22.26569704484939,12.960283614403444
0.6220735785953178,-1.541766151389334,0.7918633087445196,-3.947051488149139,7.112462243139651,-17.303043071338458,8.360631092801412
0.6287625418060201,-1.524814984834889,0.6091093251888577,-1.3335912393065426,2.5138523056559183,-13.166105258238975,6.462350363202614
0.6354515050167224,-1.507498414292417,0.5441149269293531,-1.0365898532261895,1.7415997826373018,-11.042972816139468,6.407170308952064
0.6421404682274248,-1.4898040625652549,0.5102931125667829,-0.9749802396044218,1.5597265719253048,-10.374200407204537,6.173141503327213
0.6488294314381271,-1.4717044213818378,0.49047024389705274,-0.9124362583228283,1.585192311506151,-9.952474579752304,6.034895804346915
0.6555183946488294,-1.4532438468567788,0.4786334078977282,-0.9402408389098547,1.6331217447372421,-9.74390422408091,5.905767449347104
0.6622073578595318,-1.4342517968525645,0.46765678893434115,-1.0155747808084479,1.765254859841278,-9.37632205112179,5.660649217041772
0.6688963210702341,-1.4113877989552779,0.360180485578365,-1.4012130126750144,2.4365660704569305,-8.301823754352572,4.9901118594842995
0.6755852842809364,-1.3883565855791489,0.21949311124785212,-2.5961270658910833,4.510837539293776,-7.404154480707143,4.420028763173987
0.6822742474916388,-1.3652645739787979,-0.038695362140682144,-9.204698600804779,16.018608006088613,-7.342424122103446,4.300277611032264
0.6889632107023411,-1.3421337954305126,-1.8056643697408825,-4.508870492796145,7.861017616628686,0.5080020165508952,-0.2694553256661303
0.6956521739130435,-1.319508581659187,-0.6337115911721711,9.294851392125498,-16.0958213862018,7.461879868022178,-4.281509298296516
0.7023411371237458,-1.2969942104013232,0.00021227623312907156,3.911251773035721,-6.770318908085786,10.817740422528333,-6.2403907539536325
0.7090301003344481,-1.2706566829473396,-0.019512807298784532,2.119297098026421,-3.6653980743652284,11.57344743806967,-6.693301853664803
0.7157190635451505,-1.2448908588837038,-0.10050122001069539,4.347579282029926,-7.524119515652645,11.655519410427253,-6.748430090996295
0.7224080267558528,-1.221661176853373,-0.4609415307947978,23.4533542288506,-40.629642418859845,12.442822816479408,-7.126870022524598
0.7290969899665551,-1.1995319323566014,-0.5234055831722433,-69.98024785812518,121.2115780803745,5.9535616340265465,-3.4336181264908774
0.7357859531772575,-1.1766767048406377,0.03897351685033451,-17.609556525612874,30.50917961665678,-3.556863289217223,2.025383146426299
0.7424749163879598,-1.1534037877616123,0.1817768172303347,-1.2218979015483886,2.1253365012049303,-5.056744285326568,2.894169352876889
0.7491638795986622,-1.1302273719896463,0.22258373270387458,-0.319320440664183,0.5622495790775293,-4.639069374777273,2.656588699376683
0.7558528428093646,-1.1077358000790207,0.25265949839968943,-0.021527863297011826,0.04655028261859083,-3.8578304149389715,2.2091304494996225
0.7625418060200669,-1.0865410541530844,0.2756243543068994,0.1421095143810171,-0.23688623319720226,-2.8949409476400056,1.6564310401275195
0.7692307692307693,-1.065527236396707,0.2909409180609094,0.2435009485892775,-0.41258044055546,-1.9957627877400348,1.1402034894725448
0.7759197324414716,-1.0428207532307463,0.2995453503907819,0.25285200215281756,-0.4289251721500639,-1.3838467921953066,0.7896436111179551
0.782608695652174,-1.019295026672783,0.3051395913270495,0.22701319963179917,-0.3843643402213327,-0.9832361740547925,0.5607321150166666
0.7892976588628763,-0.9951606453351004,0.30911328108649094,0.19344378610764779,-0.3264424017139432,-0.7163092713426987,0.40863365497152493
0.7959866220735786,-0.9704481311269426,0.3120359305868728,0.16151814482106447,-0.27138195259476605,-0.5397758412457041,0.308349091791316
0.802675585284281,-0.9452469143787547,0.31433997231681055,0.1335998357293897,-0.22326142228708368,-0.41733038278088813,0.2389840208548971
0.8093645484949833,-0.9196363683933834,0.3163530909587851,0.10952706749273318,-0.18179355080631002,-0.32859338098860974,0.18883911221782848
0.8160535117056856,-0.8936005486939121,0.3184135293411255,0.08875763105832507,-0.14603463088734508,-0.26298010666744837,0.15185149803423859
0.822742474916388,-0.867111986569333,0.3203090888551252,0.07112535720440408,-0.11569228006633607,-0.21583176425606815,0.12534991996156317
0.8294314381270903,-0.8402363681436019,0.3223302053608657,0.0555646999008835,-0.08892445012420662,-0.17954953393492393,0.1050116384685675
0.8361204013377926,-0.8130055108823746,0.32428004170965047,0.04162650711934499,-0.06495324695395925,-0.15120954482362417,0.0891771232118024
0.842809364548495,-0.785372144508522,0.3267075425033818,0.029168585658011833,-0.04353683928887002,-0.1298173591558302,0.07728861730805983
0.8494983277591973,-0.7573478203897517,0.3292710132287719,0.017592310869045932,-0.02363957219845545,-0.11260290866899295,0.06778373935269529
0.8561872909698997,-0.7289810014429746,0.33200165210911975,0.006765141179413986,-0.005037394352877485,-0.0989516096838911,0.060329341852433924
0.862876254180602,-0.7002327064965118,0.3351020906434329,-0.0035071122766283207,0.012611833148096368,-0.08811540576416542,0.05452595126784751
0.8695652173913043,-0.6711702286981265,0.3387061925017283,-0.013381489297578425,0.029588663388910603,-0.0793402944794839,0.04997864255798248
0.8762541806020067,-0.6417272844359233,0.3425208556020792,-0.022837828698490117,0.045853664985231773,-0.07259562619019144,0.04676483988413798
0.882943143812709,-0.611952339938271,0.3469502042569848,-0.031778823299786096,0.0610760428601752,-0.06761699073622185,0.04483546512678558
0.8896321070234113,-0.5818516956189992,0.3519824841623599,-0.038545241414159506,0.056625726127171386,-0.07636463171499486,0.049489362805204246
0.8963210702341137,-0.5514481424964915,0.3577175311022487,-0.013498014357196105,0.13025762030397062,-0.02945769235458612,0.05732122857591036
0.903010033444816,-0.5207292850309702,0.36425761902332854,-0.07323305547547264,0.12032565207838988,-0.05326163816699283,0.03239728081047102
0.9096989966555183,-0.48975015172505526,0.37193229178902926,-0.08505161050936093,0.1388335685441285,-0.05128681726275603,0.03150164291068105
0.9163879598662207,-0.4585170568295797,0.3809977256814125,-0.09829077076847345,0.1583119922915593,-0.0508143503881984,0.031602187645455
0.9230769230769231,-0.4270684974512623,0.39162696338321884,-0.11136452886852846,0.17848075559196735,-0.0515498671210404,0.031778048039706894
0.9297658862876255,-0.39548986160975275,0.4043534004081717,-0.10753607109275759,0.18625796394208108,-0.04195692094843847,0.024223887993837276
0.9364548494983278,-0.36386935491393385,0.41987923949915656,-0.11557166768671266,0.2001759103285667,-0.040820464657055175,0.023567650637992335
0.9431438127090301,-0.3323215023090177,0.4391837357912326,-0.12103316126489773,0.20963604618613704,-0.039902630373916545,0.023037746719150314
0.9498327759197325,-0.30115165637212205,0.4641709260420224,-0.12084053430989178,0.20930168442254973,-0.03914732856293409,0.022601701271001765
