# n,energy,berry,bcd_x,bcd_y,qmd_x,qmd_y
0.0000015,-3.0149583246467238,-0.00000000000000200380924604398,0,0,0,0
0.006688963210702341,-2.9909331562114034,-0.00000012333356461174603,-0.000000000000000000002796063037367793,0.000000000000000000002231487385655005,0.0000000000000000000006793201797409263,0.0000000000000000000018447961009472907
0.013377926421404682,-2.967032094303298,-0.000000836950815276268,-0.000000000000000000009050254043984016,0.000000000000000000012119410031985323,0.0000000000000000000087321988856594,-0.000000000000000000010203585599879737
0.020066889632107024,-2.9433358918581347,-0.0000027335038016518976,0.00000000000000000009380611599530027,-0.00000000000000000000072604726873608615,-0.000000000000000000005626953895931109,-0.000000000000000000028970691792616116
0.026755852842809364,-2.9198227294103276,-0.000006473083939955359,-0.00000000000000000014476779267527758,0.00000000000000000006556392694923483,0.000000000000000000042607375005366705,0.00000000000000000002555319619692334
0.033444816053511704,-2.896452597541174,-0.000012927304546544824,-0.00000000000000000005170399065770668,-0.00000000000000000019926953666741396,0.00000000000000000005986252293416272,-0.00000000000000000036992447422056423
0.04013377926421405,-2.873307943398537,-0.0000231247694832403,0.0000000000000000003104916556737185,0.0000000000000000002367243966082495,0.00000000000000000003556306915130775,-0.00000000000000000004543170570306903
0.046822742474916385,-2.8502740957217854,-0.000038287050512518526,0.000000000000000000012991525292485843,0.00000000000000000010668204128425983,-0.00000000000000000009531228705441765,0.00000000000000000010573113957935656
0.05351170568561873,-2.8275014083041596,-0.00005918238432401524,-0.00000000000000000002955336374566424,0.0000000000000000011175819228553098,0.00000000000000000016461799706181444,0.0000000000000000003519297012215786
0.06020066889632107,-2.8048663759028214,-0.00008719657258224058,-0.00000000000000000008409856234330651,0.0000000000000000011468938181330139,0.0000000000000000004502850818520028,-0.00000000000000000003772496293336107
0.06688963210702341,-2.7823615609446173,-0.00012253377738937415,0.0000000000000000012623053788956695,0.0000000000000000007157756122527445,-0.000000000000000000025874006656340212,0.0000000000000000012068901584838322
0.07357859531772576,-2.760028191648833,-0.00017059055728865658,-0.000000000000000003214633395708237,0.0000000000000000015856477780465921,-0.0000000000000000008206135048059419,0.0000000000000000004944047811850463
0.0802675585284281,-2.737878069384446,-0.0002275934341615561,0.0000000000000000008546005146975019,0.0000000000000000031951700141325635,-0.0000000000000000021126166502557212,0.0000000000000000002045238876881585
0.08695652173913043,-2.7159101312455167,-0.0003040369893565432,-0.000000000000000004320701475896363,0.000000000000000003742642060724535,-0.000000000000000002818548177099894,0.00000000000000000018080589306250573
0.09364548494983277,-2.6941209258403624,-0.000392109287429821,-0.00000000000000000370021159328989,0.0000000000000000012972000353839493,0.0000000000000000018926170355933744,-0.0000000000000000014217367854479263
0.10033444816053512,-2.6724622010753905,-0.0004999397945420008,-0.00000000000000000781651842304758,0.000000000000000006755994858475429,0.0000000000000000021185789375994267,-0.00000000000000000034934714769449137
0.10702341137123746,-2.6509799949715616,-0.0006304001706363107,-0.000000000000000008790318089658691,0.0000000000000000007570069470001162,-0.00000000000000000041867499927952974,-0.00000000000000000010235790444485602
0.11371237458193979,-2.629686748912245,-0.0007851792282981255,-0.000000000000000009075251807794175,0.0000000000000000016769577872234817,-0.000000000000000001166642148189439,-0.0000000000000000005823059722754027
0.12040133779264214,-2.60854786785104,-0.0009650465313178576,-0.000000000000000003780683818578679,0.000000000000000022438895854894772,-0.0000000000000000015432340971829461,-0.000000000000000003537246011224694
0.12709030100334448,-2.587492495310708,-0.0011812399250349143,-0.000000000000000010868912366248516,0.000000000000000023466223256809198,-0.000000000000000016399728657676008,-0.00000000000000000037836042605648384
0.13377926421404682,-2.5667257767980938,-0.0014281031493205295,0.0000000000000000012319668513224392,0.0000000000000000028298243991887576,0.000000000000000008184668750859817,-0.0000000000000000010756132451793176
0.14046822742474915,-2.5461319005248693,-0.0017157710002382964,0.000000000000000018790417125925192,0.000000000000000010853633395619523,-0.000000000000000007099453809275862,-0.000000000000000008685567467742441
0.14715719063545152,-2.525603453402555,-0.002055883635968044,0.00000000000000001681933376517039,-0.00000000000000001979564591332366,-0.00000000000000000005341448357717001,-0.00000000000000000268445083248866
0.15384615384615385,-2.5052087809793777,-0.002444424414228922,-0.000000000000000026288893287925668,-0.0000000000000000057364995633031815,-0.000000000000000013064099415426066,0.000000000000000012333270333056706
0.1605351170568562,-2.4850713323360867,-0.0028862326428021655,0.00000000000000005562968631002661,-0.000000000000000013753258719578942,0.000000000000000025674047430039807,0.000000000000000003563781365881781
0.16722408026755853,-2.465058092047033,-0.003391455929719007,-0.000000000000000035965134228591443,-0.00000000000000004015432617883301,0.000000000000000006058324547716707,-0.0000000000000000011091692517917167
0.17391304347826086,-2.445158863095408,-0.003972490371314917,0.0000000000000000168950051793488,0.00000000000000001756413781150267,-0.000000000000000045446298698669805,-0.00000000000000001095250234635002
0.1806020066889632,-2.4255312298600598,-0.004629694413523894,-0.00000000000000004502976513518844,-0.00000000000000006069412264027017,-0.000000000000000016019015839042053,0.00000000000000002064798261877078
0.18729096989966554,-2.406106264791656,-0.0053766057835698995,-0.00000000000000007480658770024172,0.00000000000000002718545165808912,-0.000000000000000009944865711905346,0.000000000000000027324437799198244
0.1939799331103679,-2.386728494914914,-0.006203239964866767,0.000000000000000008098600072360834,-0.000000000000000035357555633939316,-0.0000000000000000055363603251104125,0.000000000000000023303312075671278
0.20066889632107024,-2.367497426541595,-0.007178502308098989,0.00000000000000010262868309907298,-0.000000000000000041318091358961225,0.00000000000000003492473279062924,0.00000000000000003061958218743772
0.20735785953177258,-2.3484697458900556,-0.008229054089368434,-0.00000000000000005104828158237451,-0.0000000000000001240434668288079,-0.000000000000000034438717464698913,-0.00000000000000007141291683079984
0.2140468227424749,-2.3297408286457584,-0.009451320744592992,-0.00000000000000003887275574030339,-0.000000000000000037059242820843085,-0.00000000000000002583699740789615,-0.000000000000000004738232959921687
0.22073578595317725,-2.3109593891453706,-0.010837195593856758,0.000000000000000050889176136957095,-0.00000000000000009932316674424963,-0.000000000000000012747650515278198,-0.000000000000000049147404239158744
0.22742474916387959,-2.2924944097350615,-0.01235361579522214,-0.00000000000000005270100078556666,0.00000000000000014198645978221854,0.00000000000000014340248106830075,0.000000000000000002775227801319784
0.23411371237458195,-2.2741587595623214,-0.014087522422891565,0.00000000000000010453795447937282,0.00000000000000010036272574843084,0.00000000000000003185031676433394,0.000000000000000018857997872210715
0.2408026755852843,-2.2559641461202893,-0.016016832658600693,-0.0007248912836250487,0.00000000000000008344294968186664,0.000000000000000022349352057256607,-0.00037485477616682036
0.24749163879598662,-2.237941139018741,-0.018189548181061818,-0.0008994344619946032,-0.0000000000000000359316355502506,0.000000000000000016661115934570656,-0.00046937676469791044
0.25418060200668896,-2.220146777178746,-0.020632122036496756,-0.000673206936118734,0.00000000000000002561065525328797,0.000000000000000008210811922784331,-0.0003574372267073294
0.2608695652173913,-2.2025680832582166,-0.023348555017907533,-0.0006054549916756882,0.00000000000000004003952409695098,0.0000000000000000453979286171033,-0.0003251562340414466
0.26755852842809363,-2.185126330312433,-0.026378861694791984,-0.0005757982940265966,-0.00000000000000015639978295729835,0.00000000000000006067984710158713,-0.0003115751858724576
0.27424749163879597,-2.167798010036899,-0.02977899657263154,-0.0005625265540605773,0.00000000000000011064635648076728,0.000000000000000022350629316501532,-0.0003057679425301867
0.2809364548494983,-2.1506755141980203,-0.03351256332634467,-0.0005584268338043244,-0.0000000000000004603307049615939,0.000000000000000025502598609622913,-0.00030414303581102113
0.28762541806020064,-2.1338577016992812,-0.03773341283590898,-0.0005603636625157555,0.000000000000000020612997332321803,0.00000000000000014994796376054976,-0.000305068680621499
0.29431438127090304,-2.1171016846362134,-0.04254659281737956,-0.0005654287562154386,-0.00000000000000020638290411227602,0.000000000000000016641956273711658,-0.00030717281331720317
0.3010033444816054,-2.1005944574841116,-0.047932229756984995,-0.0005731091540644925,0.00000000000000010479517445783782,-0.00000000000000005322754931576642,-0.0003102336033921276
0.3076923076923077,-2.0843073896896698,-0.05391127919778252,-0.0005826577001243012,0.0000000000000004145750390774993,-0.0000000000000000037040465583907024,-0.00031388921489182534
0.31438127090301005,-2.068206448445369,-0.0605614540837966,-0.0005935160282909351,0.0000000000000002710906421020313,0.0000000000000001064886719861042,-0.00031786700657002886
0.3210702341137124,-2.052322941152811,-0.06798997001024118,-0.0006053723561596376,-0.000000000000000028303593426346597,0.0000000000000001834760704198718,-0.00032202965016544334
0.3277591973244147,-2.0367297121171277,-0.07651756043068011,-0.000618024166849957,0.0000000000000000041248914890638416,0.00000000000000005622600701756283,-0.0003261942861536388
0.33444816053511706,-2.0213298937360142,-0.08607054795908836,-0.0006312466895795764,-0.00000000000000016616231382297336,-0.00000000000000021335382032343584,-0.0003303520865706668
0.3411371237458194,-2.006178932546558,-0.09671736642676274,-0.0006447999852253997,-0.0000000000000002660839471514107,-0.0000000000000003069026207477831,-0.0003344129952543703
0.34782608695652173,-1.9912773497258824,-0.10857696500977244,-0.0006586547868075652,-0.00000000000000019103377568645567,-0.00000000000000010996817079889169,-0.0003383827293375503
0.35451505016722407,-1.976601215762506,-0.12238563855188203,-0.0006732569361816267,0.0000000000000000042049882967098134,0.0000000000000003119116085736528,-0.0003424285432843809
0.3612040133779264,-1.9622546711972022,-0.1382961821847242,-0.0006876924218287936,-0.00000000000000019510041643114453,0.0000000000000001672944214058346,-0.0003461305399825141
0.36789297658862874,-1.9481640027079534,-0.15621415661479374,-0.0007022980399828392,-0.0000000000000003668869383891562,-0.000000000000000007968378523550398,-0.0003497308345145793
0.3745819397993311,-1.934322866961949,-0.17619077497265143,-0.0007171519211888272,-0.0000000000000003962831154163483,-0.00000000000000006323613105090196,-0.00035328821711277204
0.38127090301003347,-1.9211893885553766,-0.20058576592347033,-0.000731638158329138,-0.0000000000000004334194530062657,-0.000000000000000010920836539776299,-0.0003564898441760995
0.3879598662207358,-1.908435149944493,-0.2285466868040971,-0.0007458934179371653,-0.000000000000000045345073328032915,-0.00000000000000018560857251009578,-0.0003595008670186049
0.39464882943143814,-1.8960149617009545,-0.2596486287920038,-0.0007599452228171158,0.000000000000000717272795501925,-0.0000000000000005602501281554686,-0.00036234399764434685
0.4013377926421405,-1.8846230024154835,-0.30144252542380445,-0.0007731435964234224,0.0000000000000006688155829988727,0.00000000000000017760699606624865,-0.0003647914383204117
0.4080267558528428,-1.8741280186913194,-0.35399140060739726,-0.0007450067626978692,0.0000000000000005924237136854255,0.0000000000000007928475322141733,-0.0003896785204131518
0.41471571906354515,-1.8666587471804665,-0.44312679148258927,-0.0005686973923063111,0.000000000000000568118502689309,0.0000000000000007591315249333009,-0.0004951653488380215
0.4214046822742475,-1.8591894756696135,-0.5322621823577813,-0.0003923880219147529,0.0000000000000005438132916931926,0.0000000000000007254155176524286,-0.0006006521772628913
0.4280936454849498,-1.8512408716942168,-0.6214405889508865,0.001626989939194321,0.00000000000000005699917794987267,0.0000000000000006698840463194213,-0.0017747254178949873
0.43478260869565216,-1.8429568305050148,-0.7106490979752559,0.004936148665539902,-0.0000000000000007534790085894313,0.0000000000000005990860970805658,-0.0036965962214606553
0.4414715719063545,-1.8341811762958267,-0.7936169902598029,0.008799248274702583,-0.0000000000000012258497652467427,0.00000000000000036995481192650995,-0.005973123049336599
0.44816053511705684,-1.8236348587168463,-0.8541077897561613,0.014657500148672557,-0.0000000000000004804447169361288,-0.00000000000000042945233396413657,-0.009527029453407929
0.45484949832775917,-1.8127098715244725,-0.9104374018421708,0.02074762376073773,0.00000000000000005469201229146332,-0.0000000000000007763779067996538,-0.013288492909522035
0.46153846153846156,-1.8010966167520737,-0.9592036650677167,0.027259196029918123,0.0000000000000002076463270541245,-0.0000000000000003008757318638985,-0.01742721079766315
0.4682274247491639,-1.7889537051822073,-1.0030640578303813,0.03319929914875314,0.0000000000000004562445861685456,0.0000000000000003462565165582508,-0.02130389648245231
0.47491638795986624,-1.7764916896747307,-1.0439842712909022,0.03866889914030371,0.0000000000000005929777039438539,0.0000000000000010224315922010559,-0.024918141607073365
0.4816053511705686,-1.7634559451452723,-1.0797657750688294,0.04208923063462218,-0.0000000000000010873986482444943,0.000000000000001041841998838581,-0.0270634820269793
0.4882943143812709,-1.7502293665102604,-1.112549350750752,0.04772178101413946,-0.0000000000000011024238430630715,0.0000000000000007608945065239459,-0.028807751116389377
0.49498327759197325,-1.7368225922169025,-1.1426588548387897,0.050172565063010585,0.00000000000000005612848315195654,0.00000000000000028361175757326404,-0.027919287145487394
0.5016722408026756,-1.7230855835134158,-1.1689155231064314,0.011556616113197395,0.0000000000000006984483834876331,0.00000000000000002999558466529105,-0.007137269869184629
0.5083612040133779,-1.7090960174920309,-1.1926443849135022,-0.0009970917949124172,0.00000000000000195181220791839,-0.0000000000000014550236384576906,-0.00038870955695993254
0.5150501672240803,-1.6949387252216868,-1.2139609848473292,-0.0010166273814070756,0.000000000000002569163304495195,-0.0000000000000024312698210619154,-0.00038931595841979166
0.5217391304347826,-1.680664415004374,-1.2322509526631067,-0.0010366089615931784,0.0000000000000008343782117065245,-0.0000000000000006225465238858784,-0.00038974450714712185
0.5284280936454849,-1.6662341655324149,-1.2470617291798678,-0.001056935257381333,-0.0000000000000007966210217889079,0.000000000000000027935463833225954,-0.0003898501311038391
0.5351170568561873,-1.6516431403996712,-1.2596237051537025,-0.0010776980775053509,-0.0000000000000009417524613289008,0.00000000000000012115093631460466,-0.00038976567189728583
0.5418060200668896,-1.6369382626719722,-1.2696854876899992,-0.0010988316221132851,-0.0000000000000006470413893963676,-0.0000000000000004092731229134512,-0.00038947966775938156
0.5484949832775919,-1.62225474758506,-1.27627684791279,-0.0011201108398994307,-0.000000000000003236877111999181,-0.000000000000001907329260711949,-0.00038892757504367594
0.5551839464882943,-1.6073943911050625,-1.2790653260712241,-0.0011417765957730446,-0.0000000000000016336254890900171,-0.0000000000000021096405435292146,-0.0003880449140248287
0.5618729096989966,-1.592564562204704,-1.278770415030539,-0.001163573822995568,-0.0000000000000009495077721822012,-0.0000000000000006344857357823719,-0.000386940362790959
0.568561872909699,-1.5777629174934011,-1.2753085259384958,-0.0011854989992482134,-0.0000000000000006424923500579077,0.0000000000000013489194013771582,-0.00038561409322729177
0.5752508361204013,-1.562905043448714,-1.2679834571758652,-0.0012076522889675275,0.000000000000002522389752212555,0.0000000000000009942039360290085,-0.0003840086984632405
0.5819397993311036,-1.5480676662093207,-1.2558830544666812,-0.001229895884425822,0.0000000000000011060542473593681,0.0000000000000008102130401521858,-0.00038206986658552753
0.5886287625418061,-1.5332557365250443,-1.2393762785518043,-0.0012522356115787987,-0.0000000000000008442047734066733,0.000000000000000234259484668011,-0.00037989928060380495
0.5953177257525084,-1.5184719731993672,-1.2184202317419282,-0.0012746556153005073,-0.000000000000001806251494041353,-0.00000000000000027100463072604886,-0.00037749668981888496
0.6020066889632107,-1.5037216923820158,-1.192653390345712,-0.001297128015974443,0.0000000000000002550082192909526,0.00000000000000030275038131868283,-0.0003748286268855373
0.6086956521739131,-1.4891387780389493,-1.1598278912499724,-0.0013194406402684577,0.0000000000000024039314378238583,-0.0000000000000002585570337011024,-0.0003718540184113632
0.6153846153846154,-1.4745936194413887,-1.1209383883371082,-0.0013417707487563065,0.0000000000000023810794660894553,-0.0000000000000009751587905785118,-0.0003686533999253322
0.6220735785953178,-1.4601441428123394,-1.0757433793270235,-0.0013640221150071636,0.0000000000000004906591715542785,-0.000000000000001195373770381827,-0.00036524377293343607
0.6287625418060201,-1.4459691683029636,-1.022670257842929,-0.0013859159701149612,-0.000000000000002270391415367037,0.0000000000000004817119236726793,-0.00036162221751834066
0.6354515050167224,-1.4320051680034669,-0.9586077174424124,-0.0014075281539744809,0.000000000000004014674175815795,0.0000000000000007387402079966669,-0.00035776174827010826
0.6421404682274248,-1.4182992480091687,-0.8860908769347421,-0.0014287618703504373,0.000000000000007059649439411409,0.0000000000000004730153132433353,-0.0003537713950020165
0.6488294314381271,-1.4048862055140028,-0.8050611039075889,-0.0014495587416392128,0.0000000000000033270120912534897,-0.00000000000000012274511881824866,-0.00034966883801982235
0.6555183946488294,-1.3919721596274053,-0.7045337255713996,-0.0014695849949901384,0.0000000000000028480028792063207,0.00000000000000011559979828593766,-0.00034540542135810007
0.6622073578595318,-1.3794565589922545,-0.5919892246429161,-0.0014889891940392263,0.0000000000000013934399021848714,0.00000000000000026118002564522495,-0.00034112812254634975
0.6688963210702341,-1.367427007077211,-0.4650181419378054,-0.0015076341315882157,-0.0000000000000014852693707245063,0.00000000000000024389141830329114,-0.0003368413944641104
0.6755852842809364,-1.3566941425931818,-0.30285267852328535,-0.001524239703888832,-0.0000000000000029717940802036186,-0.0000000000000009834305318354,-0.00033280537100486776
0.6822742474916388,-1.3462757808121146,-0.13215105782255931,-0.0015403506420412338,-0.0000000000000041206539078088076,-0.0000000000000025042378261530585,-0.0003288301542440566
0.6889632107023411,-1.3366526183138976,0.07422252211308786,-0.001555182013875526,-0.00000000000000405162300575586,-0.0000000000000008225084025362599,-0.00032493775824670617
0.6956521739130435,-1.3270990441981219,0.283717777325878,-0.0015699014100677066,-0.000000000000003876013730589233,0.0000000000000011394769955472216,-0.0003210526099457334
0.7023411371237458,-1.315446996121209,0.48027692849615,-0.0015877714837462071,0.00000000000000011336060762008457,0.0000000000000017621746953317089,-0.000316055708676763
0.7090301003344481,-1.3032110151471286,0.6757545314149426,-0.001606495529039667,0.000000000000003230670227727012,0.0000000000000018025601282523136,-0.00031070132189569904
